date,AAPL,MSFT,AMZN,FB,GOOGL,WMT,JNJ,JPM,V,PG,NVDA,MA,UNH,DIS,HD,BAC,VZ,ADBE,NFLX,CMCSA,KO,CRM,PFE,T,MRK,PEP,ABT,INTC,CSCO,TMO,ABBV,NKE,AVGO,XOM,ACN,QCOM,CVX,COST,LLY,MCD,MDT,TXN,NEE,HON,UNP,AMGN,CHTR,PM,UPS,BA,C,LOW,MS,SBUX,WFC,AMD,IBM,BLK,INTU,MMM,AMT,LMT,CAT,ISRG,GE,SCHW,AXP,SYK,CVS,TGT,GS,DE,FIS,MDLZ,TJX,MO,MU,AMAT,CELG,ZTS,SPGI,ADP,ANTM,FISV,FDX,CL,PLD,CB,BDX,GILD,CI,AET,ATVI,LRCX,USB,CSX,SHW,ADSK,CCI,DUK,CME,ITW,AGN,EQIX,SO,ECL,PNC,D,GPN,NSC,GM,APD,EL,MMC,PGR,HCA,EW,ILMN,ADI,MCO,DG,ESRX,HUM,WM,NOC,BSX,AON,NEM,EMR,PX,MNST,ETN,KMB,COF,CTSH,ROP,IDXX,ALGN,GD,COP,ROST,BBT,MAR,EXC,MET,PSA,EA,AEP,BAX,CMG,KLAC,TEL,SNPS,DLR,APH,BIIB,CDNS,MCHP,SYY,APC,SRE,CTAS,STZ,A,GIS,BK,EBAY,XLNX,FCX,XEL,PAYX,TRV,PH,F,PPG,WBA,CNC,ALXN,RHT,TROW,CMI,JCI,ORLY,VRSK,RTN,TDG,YUM,VFC,ALL,AIG,ZBH,KMI,STI,ANSS,RMD,SBAC,RSG,BLL,AFL,LYB
2013/2/11,1.067827928,0.695715855,-1.517913684,-1.64854437,-0.745290896,-0.759814268,0.428208216,0.248653129,-0.738383195,-0.582318687,0.48820179,0.178464625,-0.12254902,0.515558829,-0.278572504,-0.42662116,-0.113199004,1.019792896,-2.894340811,-0.415045396,-0.492227979,-0.230115648,0.37327361,-0.284414107,0.341880342,-0.372567959,-0.145815106,0.191570881,0.094652153,-0.054149181,-0.209351012,0.458883994,-0.142653352,-0.158892294,-0.988739357,0.648371532,0.095735422,-0.049111089,-0.149365198,0.254345061,0.492189172,0.312919088,0.083426029,-0.370475919,0.544629349,-0.936877855,-1.049737566,0.669344043,0.551065393,-0.563712638,-0.152743508,0.555412038,0.390625,0.035816619,0.692041522,0.387596899,0.03505609,0.661717922,1.746506986,9.80E-05,0.926538716,-0.251629875,0.208116545,-0.376794784,-0.445434298,-1.963117192,-0.195185426,0.555555556,0.274348422,-0.530717272,0.405786498,0.948125545,0.497914143,-0.432432432,-0.264026403,0.274844496,0.783289817,0.898203593,1.470738433,1.795665635,1.069645828,-0.380102462,0.030590395,0.762786045,-0.70601525,-0.728647851,-0.051124744,0.646982708,-0.022779043,0.0249066,0.278642845,0.878876654,2.248062016,-0.329877474,0.68636228,2.770083102,-0.018441111,-0.155078832,-0.19962926,0.116397497,-0.03531697,1.116685548,-0.506970849,1.167496163,0.366720147,0.490262835,0.12652222,0.388888889,0.424328147,0.801749271,-0.526315789,0.893163861,-1.537475977,0.055141991,1.521077792,-1.453175457,0.023359028,-1.125370188,2.969628796,5.999508237,0.154117129,-0.435413643,-1.514964897,1.340407707,0.243828101,0.131926121,0.572655691,-1.38485593,-0.609649887,0.276887996,0.441023588,-0.01700102,-0.463422708,-0.984355774,-1.421254802,-0.168804862,-0.458926604,0.963031998,-0.255754476,-0.086835707,-0.082382134,0.163880695,0.691699605,0.29201817,-0.081721602,0.77170418,1.601423488,0.519774011,0.087655223,1.06715499,0.14239943,0.499126529,-0.642711072,-0.644864118,0.920598389,0.449715078,1.366906475,0.445930881,0.54157375,-1.330678712,0.225464191,0.187178287,-1.771591269,-1.222222222,0.211977807,-0.558457936,-1.134953006,0.797944279,-1.251934168,0.650994575,-0.241036457,0.127502231,-0.27751094,-0.229885057,0.553169809,0,-2.871658935,-0.990312164,-1.394204483,0.072555179,0.347104639,0.689443272,0.357710652,-1.013264554,0.111586386,0.147190696,1.288092994,-0.913042999,0.044553353,0.363541937,0.520277481,0.240577386,1.232852926,-0.107773138,-1.386363636,0.289939113,3.871829105,-1.073602656,0.059904153,-1.066622908
2013/2/12,-1.163487267,0.909090909,0.155884645,-3.35235378,0.726330166,0.808166738,0.493004664,0.454733361,0.307810696,0.918530351,0.24291498,-0.139628492,-0.210341805,0.183183733,0.445451114,0.942587832,0.203989121,-1.074375876,0.520595561,-0.208387601,-2.941942203,0.81613342,0.371885459,0.484883058,0.097347286,-0.193905817,-0.087616822,0.334608031,-0.992907801,0.474062034,-1.538461538,0.109629088,-0.628571429,-0.056837558,0.665742025,-1.827715356,0.434744805,-0.226022013,0.373971578,0.221987315,0.170357751,-0.742721331,0.06946374,0.057208238,0.255792958,-0.366473578,0.075776711,-0.254875887,0.146145415,-0.026367831,1.200282419,0.629415543,0.302637268,0.161117078,0.859106529,3.861003861,-0.365456821,0.598373436,-0.016347883,0.578106058,-1.049180328,-0.229331499,0.384215992,0.022853644,0.581655481,1.45631068,0.961538462,0.299921073,-0.078170803,0.792239289,0.549747914,0.259095325,-5.704338511,-1.302931596,-0.529450695,-0.346220427,1.683937824,-0.074183976,-0.463009562,0.821167883,2.610536218,-0.464499005,0.04587156,-0.260610573,0.094804702,0.148657438,0.767263427,0.633473586,0.501253133,0.348605578,0.817260543,0.120168236,1.895375284,0.177304965,0.889152341,0.853548967,-0.239778666,0.440072483,-2.557508215,0.363464613,0.141317788,0.28809219,-0.810654314,-2.151724138,0.274035168,0.135519718,0.663402306,-0.092233905,-0.412474849,1.373825018,-0.388007055,-0.363182386,0.357839948,-5.125378892,0.385273973,-2.102676133,0.864082205,-0.778753994,0.415119074,4.940848991,-1.077159815,-1.166180758,-1.425712856,-0.248002204,0.197628458,-0.790513834,0.240213523,0.509626274,1.033999299,-0.451182097,-0.287367406,1.071246387,-0.509921295,-1.775252974,-0.636446292,0.73554278,-0.376141859,0.830769231,0.294117647,0.121675647,-0.364568329,-0.523560209,0.318940137,1.585247493,0.354416576,-0.20421187,0.875656743,0.269784173,0.189753321,0.606041673,-0.035549236,0.248323814,0.1764187,0.448153299,0.014253136,0.162521848,0.496806246,0.527192009,-0.602027883,-0.277675716,-0.105862115,0.583839327,0.289855072,0.112485939,0.235294118,0.18115942,0.64573991,-0.120756742,0.056980057,0.071864894,0.271821202,0.72583726,0.556566413,0.230414747,-1.952949692,1.044703596,1.137138958,-2.359208524,0.323445153,0.597322348,0.345903991,0.260624253,-0.267326733,-0.055834729,0.743080067,0.321720656,-0.651364764,0.669517335,0.534402138,-0.388098318,0,-0.413333333,0.651801029,0.48550236,0.253514635,-1.429603932,0.128534704,0.447527411,-1.376970665,-0.281970476
2013/2/13,-0.967218144,0.468468468,1.284046693,0.774907749,0.076985254,0.154711674,-0.066295412,-0.205761317,-1.457614116,0.224244823,-0.403877221,-0.449364525,-0.316177762,-0.045712196,0.992182802,2.292020374,0.158335218,1.442812172,2.24808178,3.993735317,-0.724248927,-0.275708336,-0.592812153,0.312233892,-0.291757841,-1.498751041,0.116924876,0.738446879,-0.047755492,0.620248045,-0.142045455,-0.693557218,0.316273721,0.363967243,0.854229815,-0.503586144,-0.515972643,-0.571259726,-0.782414307,-1.402805611,-0.331420068,0.389105058,0.541302235,-0.100057176,1.163139727,0.20170859,0.548965169,0.466614821,0.194576189,-1.589080839,1.76744186,0.791422007,0.818965517,-0.804289544,-0.766609881,1.486988848,0.276354135,0.427260922,-0.376062786,-0.048718698,-2.465208748,-0.597632456,-0.672390607,0.323624425,2.491103203,0.598086124,-0.0968523,0.118035883,-0.625855662,0.144369586,0.981619343,-2.530418865,3.947742119,0.678401173,-0.266134398,0.202663578,0,1.076466221,-1.001112347,-0.452488688,0.641760257,0.083333333,-3.943145346,-0.161751897,-0.018942982,-0.389646535,0.050761421,0.171889155,0.022670596,1.322580645,-0.340466926,-1.180236047,-0.334821429,0.790560472,-0.719741481,1.046770601,1.42364107,-0.695876289,-1.026392962,-0.796552568,-0.158758158,0.405362273,-0.735551664,-2.067474861,0.341607834,0.297739884,0.329515142,0.738552437,-1.016264269,2.011412268,0.708215297,0.637885864,1.539708266,4.211443509,0.682302772,1.394700139,0.034730262,0.020124774,0.217580505,1.127320955,-2.757777778,0.20280236,-1.420959147,0.670718232,-0.561371567,-2.921646746,0.292890743,1.002816901,0.27753686,0.607324148,-1.248202807,1.463660834,-0.412256267,-0.506054582,-0.784313725,0.134284515,-1.197411003,-0.854440037,-1.165501166,0.694444444,0.365569957,0,0.660308144,0.382165605,0.434664493,-0.537153089,-1.273148148,0.358744395,-0.946969697,-1.828908555,-0.053520626,0.421104781,0.029351335,0.538461538,-0.513039761,0.012245898,-0.141242938,0.690035882,0.765062161,0.628171056,0.119221089,0.511028558,0.802825947,0.404494382,0.58685446,1.012658228,0.534664053,0.698549167,1.053530752,0.035906643,0,0.897597977,1.511442257,-0.459770115,1.105926823,-1.490742967,0.359793119,0.04453847,-0.331613854,0.532350532,-0.790314444,0.390386007,0.555941626,1.04283054,-0.792919048,0.111568231,-0.171714018,-0.217355836,0.73089701,0.155844156,0.411413404,0.897041103,-1.618950239,0.630787814,-0.459770115,-1.877080553,0.032092426,-0.311873468,-1.881829219,2.46174318
2013/2/14,0.172725926,-0.035868006,1.959277756,2.563163676,-0.28206212,-0.638955203,0.013267878,-0.268041237,0.103801739,0.355356673,-2.270884023,-0.005811926,0,0.082319583,-0.327478416,0.165975104,-0.383920506,-0.954228084,2.800235334,0.15060241,-0.837611456,0.917647059,-0.074543422,-0.877192982,-0.451109485,0.732600733,0.087591241,-0.401986285,-2.006688963,-0.214495961,-0.39829303,-0.16541077,0.286615076,-0.203989121,-0.737704918,-0.260736196,0.131402614,0.061416543,-0.150206534,-0.310226786,-0.776595904,-0.715563506,-0.794809162,-0.157390185,-0.229953268,0.188277087,-0.696579856,-0.641380073,-0.606869766,-0.113902848,-0.02285192,-0.177304965,0.042753313,-0.27027027,-0.114449213,-1.465201465,-0.155333968,1.088633994,-0.541605121,-0.350945603,-1.399646691,-0.705283848,-0.354092897,-0.578572514,0.303819444,-0.475624257,-0.096946195,-0.039298907,0.216492816,0.240269101,0.221816284,-0.41979673,-0.109289617,-3.660535422,-0.111185235,-1.589136088,0.127388535,0.257069409,0.663942799,-0.696969697,0.36438169,-0.033305579,-0.350039777,-0.760219342,-0.113679424,0.181614976,-0.913242009,-0.150724638,-0.702629193,0.678372885,-0.260289572,-0.829959514,1.829040687,-0.210723484,-0.162745968,0.418778929,-0.867412044,-0.804567869,-2.02962963,-1.007152241,0.812720848,0.772642019,-0.023523877,4.183859514,-0.590104403,0.202401835,-0.375351892,-0.73313783,1.304294579,-0.447489862,-2.70745429,-0.362195812,0.303272147,0.334448161,1.058873359,1.045392022,-0.393472978,-2.635814889,-0.173686496,1.639344262,1.282021984,1.379944802,0.038610039,-2.587067953,-0.411962161,0.683994528,0.973451327,-0.981704596,-0.207576544,-0.171186593,1.109899652,0.497429945,0.458715596,-0.566394187,-0.052700922,-0.159249015,-0.098264003,0.030778701,-0.136944614,-0.655344828,-0.626821192,-0.394736842,-0.923226433,-2.696700508,-2.54260211,-0.925806866,-0.468933177,-0.781948168,-0.132372408,-0.54402834,-1.227363863,-0.197335964,0,-0.382555471,-0.128921358,0.06734419,0.212164074,0.054824561,0.316355584,-0.228091236,-0.357237364,-0.369830516,27.58840395,-0.716204118,0.396732789,0.358037952,0.390001773,-0.160085379,-0.239504086,-0.215362527,0.481927711,-0.350833229,0.167767642,-0.230946882,0.700985761,-0.012204052,-0.179251624,-5.932109071,-0.536044362,0.067888663,-0.093220339,1.23095104,-0.029617929,0,-0.483085502,-0.626871909,-0.281469898,-0.824758268,-0.043975374,-0.15560166,0.118953212,-0.822717622,-0.502338472,0.480128034,-1.501154734,-0.345234715,-0.609560475,0.581005587,-0.654980408,-0.876623377
2013/2/15,-0.883562005,0.017940438,-0.862848531,0.285612281,1.195713352,-3.70998516,0.172459538,0.413479429,0.933246922,-0.045901639,3.319502075,0.030998741,0.511013216,0.329007494,-0.238948626,-0.828500414,0.113352981,0.206260933,0.849365534,0.927318296,-0.435967302,0.612030776,1.156284968,0.342563517,1.004286589,1.356643357,1.443990665,-0.332383666,1.999024866,-0.657894737,5.484147386,0.368188513,-0.028579594,-0.295253236,0.467932838,0.124557896,-0.899491592,0.017819665,0.601729974,0.02146153,0.171969046,0.285285285,0.531287799,-0.014330754,1.301115242,-1.52347859,0.126390293,-0.500834725,1.099035291,0.241481084,-0.274285714,-1.649327582,0.170940171,-2.131887986,0.315095961,0.371747212,0.281039847,0.004126093,0.264026403,0.391312855,1.378169791,1.362366092,-0.412834448,0.151674584,0.519255733,0.238948626,-0.646935145,-0.51894952,-0.058915947,-2.940236497,0.299440177,-0.687818948,-0.437636761,0.56710775,-1.179875334,0.264239577,0.381679389,-0.146520147,-0.010147133,0.701861459,0.294985251,1.1994003,-0.095800734,0.351626272,0.711305008,1.05517594,-1.126472094,-0.046446818,0.479342616,0.462174653,-0.5545588,0.306184936,2.639296188,-0.703894885,-0.059276823,-0.348112379,0.727891261,0.96807954,0.551943142,-0.062223533,1.61233789,-0.252523261,0.035294118,2.869116699,0.273972603,0.942633989,0.047095761,0.867799114,0.07857992,-0.056187667,-1.626310083,-0.079518346,0.238701464,-0.219444444,0.50293378,-1.715219167,-0.383408853,-0.12399256,-0.260983036,-0.731182796,-0.94765343,-1.12522686,-0.257300913,2.845070423,0.19764057,1.086956522,-0.403155127,-3.582694908,0.502686774,-1.150722022,1.334047925,0.197987131,0.523443591,-1.933202042,0.210914843,0.419744795,-0.819672131,-0.153846154,0.411397227,-1.457656122,-1.535119141,-0.330250991,0.858263855,-0.326051516,0.860394116,-2.660609994,-0.883392226,0.788110786,0.176730486,-1.163974049,-0.333213256,0.716757291,0.645539906,-3.609831029,0.372920252,0.581217498,0,0.767123288,0.788394828,-1.708578992,-0.069711858,1.15928588,7.390761548,-4.846708747,2.60344026,-0.820549411,-0.388486668,1.202565473,-1.511086005,0.323741007,0.869304556,0.528102603,0.188422485,0.385802469,0.427815242,0.109849872,2.244668911,1.194983436,0.055751719,-1.465400271,0.504707778,2.079914432,-0.829547699,0,-0.16828508,0.147192823,-0.509644033,2.348703532,0.571931368,-0.467532468,-0.528052805,0.133797164,-2.576601671,-0.132731617,-0.093786635,2.024745051,0.903808909,0.688735836,1.199026829,-1.932525385
2013/2/19,-1.319882866,-0.269058296,0.52829615,0.106799573,1.043108077,0.601790694,0.595947557,1.132386247,0.590728137,0.360821361,0.240963855,0.90062172,-5.259467041,1.238841319,0.224550898,0.751879699,0.226449275,0.364773319,2.088806209,2.309411473,2.517788725,0.683622038,0.958702065,0.625889047,0.836667879,1.393680144,-0.071890726,0.333492139,0.143403442,0.310852818,0.487408611,-0.421863536,-0.51457976,0.660592255,1.136986301,0.305631921,1.017276155,0.435514204,0.186915888,0.600793906,-3.454935622,0.104806109,0.44859192,0.372653003,-0.095412844,-0.480076812,-0.189346125,0.771812081,0.83343399,-0.602248394,0.733440293,0.335397317,1.578498294,-0.276906037,0.171330668,1.111111111,0.200180162,0.119651772,2.007899934,0.68212824,0.57096248,0.413555428,-0.162669885,-0.246527121,0.774860095,0.655542312,0.390688589,-0.110654442,0.962861073,1.152453079,0.759345794,0.033512064,-0.10989011,0.563909774,0.473079522,0.834553441,-0.126742712,0.293470286,0.081185305,1.727272727,1.244343891,0.559670782,-3.45213361,1.063696659,0.207175817,1.122355106,0.958052822,0.383364312,0.102226261,1.840193705,-8.200754469,-4.558404558,-0.142857143,0.59073724,-0.029655991,0.21717392,-1.29008702,0.647836227,0.308293857,0.681934203,1.0348396,1.185958254,-0.752675526,-2.851770605,0.523679417,-0.213447172,-0.525655107,0.640673623,0.905979464,0.74490513,0.881704629,0.250113688,-0.777901254,-2.062860165,0.792326939,-1.301939058,0.338231864,0.641423546,0.741386829,1.06152513,-1.25284738,1.853891336,-9.99613053,-0.21911805,0.383797917,-1.075268817,0.492784231,0,-0.086236633,0.579776307,4.141894949,0.526922444,1.163416796,-1.359910581,0.749802684,0.334392242,0.297520661,-0.61633282,0.470409712,1.303275801,0.050761421,0.331345262,-1.215657671,-1.373895976,0.550357733,0.573333333,1.01010101,0.848972297,-0.014701558,0.173756355,0.930694859,0.466257669,-0.087463557,0.398406375,0.543012289,0.845498783,-0.211714891,-0.761283306,0.250312891,0.86913943,0.694282962,1.489800596,-0.348756103,0,0.815586769,0.575539568,-0.088636767,1.161869554,-2.122168053,0.860523485,0.237741456,0.400250156,0.595549054,-0.845503459,-2.144404332,0.731528895,-4.34687157,-4.337659301,-0.092867756,0.647204627,-0.400894628,0.188305876,0.906193985,0.591596019,1.028999065,-0.335946249,0.764441642,2.840862552,0.284339458,-0.574112735,-0.703384207,-0.267236772,-1.644031451,0.14619883,0,-0.705717028,-0.895713372,-0.706090026,0.164102564,0.843353373
2013/2/20,-1.112660329,0.107913669,0.707372401,0.746799431,-0.438325425,-0.35016049,0.763559768,-1.54723127,-0.938337802,0.562164989,-1.121794872,-1.545224201,2.128053294,-1.817527443,-0.866318148,-2.570480929,0.180750113,0.59709242,-1.919799148,-0.67961165,-0.121996797,-1.570861384,0.620891161,0.254452926,1.539201539,2.463255308,-0.690647482,-1.709401709,0.572792363,-2.196173538,1.347345729,-0.552587954,-0.373563218,0.588368409,1.584721658,-1.255550452,-0.30384582,-0.413915443,0.932835821,-0.021328783,-1.222493888,-1.13670356,0.399724328,0.442667428,-1.057890097,1.591895803,-1.441760465,0.732600733,0.395304264,0.646290561,-1.88850967,-0.668552327,-1.931961361,-1.554979637,-0.057012543,-1.831501832,-0.679252822,-1.508283195,-0.984188448,-0.16453736,-0.081103001,0.354650498,-2.186481657,-2.476447379,-0.256300726,-1.184132623,0.324306794,-0.237379332,0.914752822,0.29296875,-0.444444444,-1.563372418,1.540154015,0.747663551,-0.695067265,0.798606069,-0.253807107,-0.804681785,1.794767796,-2.889484659,0.670391061,0.065477165,3.194835292,-0.09905894,-0.770604267,1.846797671,0.410361631,-0.532345793,-0.930557132,-0.439847836,5.806682151,2.441364606,1.573676681,-1.667841203,0.259566894,0,-1.837124715,-0.360453141,0.374812594,0.703399766,-1.237623762,-1.359587436,-1.730062804,-0.670506912,0.566251416,-0.13368984,-0.5915293,1.018552201,0.339185954,0.648716518,-1.493080845,-0.714447721,1.84,2.444570779,0.124120811,-0.968285153,0.32546786,-0.596217105,-0.952380952,1.479099678,0.438292964,2.288700667,3.554026942,0.192149327,0.548362529,-1.086956522,1.593695271,-5.491937369,-0.310719834,-0.354030501,0.183561459,-0.704340704,0.459861505,-1.983002833,0.574487531,0.724879187,0.747088552,-1.674418605,0.558827972,0.208623088,-0.862506342,-0.990752972,-2.73197145,0.265339967,-2.093596059,1.014185337,2.647058824,0.808595481,-0.705778562,-1.066426828,-1.790510295,0,0.776189087,2.222222222,-1.264923252,-0.645394777,-0.848656294,-0.246575342,0.717852684,-2.560679612,0.211137503,-0.316169828,-4.036397573,0.035536603,1.438202247,-0.500715308,-1.561391057,-0.05220569,-6.211544096,0.213295414,-0.118588793,-0.249159088,-1.589115081,-2.558139535,-2.98088984,0.702009199,3.947670415,1.808848692,-0.260271426,-1.395539746,-2.957376494,0.343931154,-0.157899931,-0.679723713,0.092592593,-1.889044944,0.922884405,1.238759966,1.090512541,-1.57480315,0.547981823,-0.589496249,0.018168605,0.96881221,0.610185402,-0.222057735,0.451904454,-1.111111111,1.966004505,-0.356048688
2013/2/21,-1.332466131,-2.15594682,-1.171674094,-4.165195905,-0.072496883,2.079062958,-0.209041024,-1.095947064,-0.257748566,-1.326053042,-0.648298217,-0.458170049,-0.561695959,-1.008064516,-3.13394606,-3.404255319,0.135317997,-1.161290323,-2.144669479,-2.346041056,0.041962565,-1.923301765,-1.161524501,-1.297236323,0.118427286,-0.757072652,-1.086641553,-2.801932367,-1.708590413,-1.198512192,1.542143047,0.240785331,-4.932218056,-0.607424072,-2.066666667,-0.263606761,-0.65308255,-0.781791192,-0.314232902,-0.48,0.067506751,-2.602118003,-0.439319055,-1.418112027,-0.593258093,-0.106837607,-2.232773001,0.661157025,-1.83748956,0.214046823,-2.852504638,-3.624126327,-3.404710921,-1.241068071,-0.114090131,-5.970149254,-0.377149754,-1.548117155,-0.993970996,-0.736791081,-0.487012987,-0.706794346,-2.665233745,-1.038679673,-0.985010707,-2.396644697,-1.179893325,-2.300126904,-0.636451302,1.460564752,-3.079710145,-2.336925695,-1.652221018,-1.168831169,-0.564461504,-0.259291271,-2.798982188,-3.466076696,-2.534913836,-2.26993865,0.332963374,-1.734009488,-0.393006096,-1.735250372,-1.268964864,-0.393032604,-1.353767561,-0.26759744,-1.030696404,-1.659701493,-0.894967916,-1.425746696,-0.422535211,-2.663640707,-0.436422812,-1.384615385,-2.863781951,-2.041343669,-0.642270351,-0.145518044,-0.596491228,-2.582382763,-1.097310985,-1.737456216,0,-1.459170013,-1.071088543,0.144040331,-3.579240406,-1.032642595,-2.661737523,-2.912621359,-1.696779262,-0.055493896,-0.20661157,-0.382598838,-1.4019233,-0.723888314,-2.021416084,-0.697084918,0.091869545,-0.968992248,-0.608912261,-0.739726027,-1.333131344,-1.57967033,1.017066023,0.173095945,-1.645021645,-0.628587046,-0.020154764,-2.193995381,-0.654093535,-0.134874759,-2.473062443,0.049631897,-0.687022901,-2.390097761,-0.811054371,-0.954198473,-1.569430229,-0.400266845,-1.189271255,-0.330797221,-2.278127184,-0.774329024,-1.661891117,-0.604329195,-1.665926255,-0.269480519,-2.406563355,-1.587689301,2.154273801,1.692546584,-0.878076868,-1.669499757,0.784593438,-1.592968965,0.635264952,-1.245485116,-0.329207269,-1.064793838,2.212496961,-1.788040261,0.088613203,-2.228612509,-2.847873107,-2.115434839,-0.999687598,-0.673997872,-2.433956664,-0.187336081,-2.248126649,-2.14797136,-2.502091414,-0.576923077,-1.081916538,0.384153661,-3.690587139,-1.290412099,-2.672022354,-1.964200101,-0.553523772,-1.309721454,-0.721554117,-0.565457018,-0.418474892,-1.336102567,-0.431499461,-1.813333333,-2.246444238,-1.482479784,-0.817438692,-0.630914826,-2.076043854,-0.192878338,-0.57840617,-1.213483146,-1.385820446,-5.417982383
2013/2/22,0.85362133,0.918105031,-0.622981956,-1.215469613,0.326081247,0.243832473,-0.536789736,1.212628058,1.227469475,1.123847167,0.326264274,1.318160451,-1.147959184,-0.148120718,0.32664489,-0.792951542,0.720720721,0.182767624,-2.230029841,-0.825825826,0.748063051,0.584133039,-0.367242012,0.628571429,0.615093447,0.562098501,-0.366193057,-0.099403579,0.048285852,0.488008924,-0.130924326,-0.22172949,2.275485437,0.050928022,0.680735194,0.544154229,0.639845736,-0.029922202,-0.741702207,0.589496249,0.179896559,2.982292637,0.110314396,0.284818113,0.096354225,1.093285799,0.078750492,1.40120416,0.486203963,2.095848351,1.241346383,0.88638195,2.238971403,1.447067784,1.056539121,1.19047619,0.368482156,1.147471313,0.477287689,0.419962887,0.80206634,0.631458094,0.529976814,4.250231545,0.475778547,0.982197667,1.063133791,0.860529307,-0.543478261,0.735764555,1.50200267,0.778255314,-0.826218673,0.35667355,-0.544959128,0.852108608,1.047120419,1.604278075,1.640141775,2.008788449,1.039823009,0.449475612,-0.668330783,0.277497477,0.604220044,1.165814725,0.56965303,0.851609893,0.277745631,1.020155415,-0.119270745,0.021114865,0.636492221,-0.012271444,-0.326894502,0.334299086,0.084049913,-0.237404379,2.300060132,0.349752259,0.017562194,-0.292567897,0.512070227,-2.445703494,0.247747748,0.896617307,-0.216537012,0.143833154,1.526087853,-0.014005602,-0.075958982,0.376470588,0.1438389,1.038312049,1.532091097,1.3371266,0.211515864,0,0.791792127,1.148691768,3.854979348,-1.298701299,-2.158173211,0.549268562,0.475971135,0.767620377,1.348122867,0.543075784,0.211267606,0.797579758,1.405009163,0.6662169,0.820256776,0.173644607,0.366056572,1.099627945,0.219611288,0.219371222,1.014536644,0.980907339,-1.334488735,0.803750837,-0.025608195,0.265516097,1.372997712,0.535678857,2.972027972,0.596948928,0.112943302,1.084090243,1.401083505,0.173740382,-0.93537415,0.824553367,1.074644206,0.444526764,0.707714084,1.451297795,0.323325635,1.570185395,0.277447483,0.526677353,2.069457659,0.265251989,0.1770695,0.790441176,1.243042672,0.400213447,-0.126222783,0.214285714,0.273805902,0.825825826,1.079789548,0.081300813,1.482059282,0.217601547,0.892857143,3.958383162,-1.296690536,0.309249367,0.879239189,0.922193703,0.099393698,0.635514019,0.633619083,1.857183991,0.73151751,-0.777699222,0.845070423,2.824551874,0.271960838,0.328317373,1.282051282,-0.383597884,1.905669366,1.218968337,0.096961862,0,0.99796334,1.862590054
2013/2/25,-0.902352512,-0.400291121,-0.749206835,1.230425056,-0.416992934,0.786950923,-0.526523628,-1.56992357,-0.510562257,-1.085299597,-0.162601626,-1.235283883,-1.769585253,-0.630446876,-1.054263566,-2.486678508,1.58765653,-0.703674746,-1.670066693,-0.757002271,0.026518165,-3.241481481,-1.068927387,-0.085178876,-0.047260757,-0.066542454,0.705674802,0.646766169,-0.337837838,-0.652143749,-2.018877819,0.074074074,-2.284188668,-0.797466207,-0.054090602,0.201020566,-1.149625501,-0.169609897,0.448346721,1.502397443,-1.503928171,1.674208145,-0.564738292,-0.848432557,-0.641743153,4.972375691,8.747540984,-1.165928965,-0.88302891,-1.895920502,-3.230370196,-4.526091587,-4.509973981,-0.15015015,-1.751907318,-0.784313725,-0.668879501,-0.630252101,1.572481572,-1.040653569,-0.660822657,0.068454079,-2.163646348,-0.642105939,-1.808006888,-0.972644377,0.32367697,-0.048293625,-1.385636222,-0.142902509,-2.926668859,-1.5329645,1.971674535,-0.935278713,-0.525114155,-0.801947587,2.07253886,-0.601503759,-0.55304173,-1.538461538,-0.262754543,0.696055684,-0.356679637,0.012578616,-1.697177727,0.842123925,-1.338825953,-2.359745518,0.230813618,1.105526189,-1.688843398,-1.519949335,0.63246662,0.270004909,-0.596302922,-1.288316304,-0.342377261,-3.437334744,2.21895665,0.348533256,-0.052155772,-2.544605212,0.849102377,1.66005227,0.044933723,-1.992729231,-2.234367465,-0.035906643,-0.731261426,0.056030256,0.076016724,-1.289263947,-1.484200447,-1.851953619,-1.957585644,-1.263335205,1.383677298,1.208333333,-0.97366674,-1.829652997,0.309323906,-0.558759913,-0.868080262,-0.244310851,-1.054400978,0,0.101027109,0.171863491,-2.02037948,-0.418371987,-0.341566265,-0.728826338,2.571358602,-2.157164869,0.079575597,-0.80143932,0.810781199,0.354609929,-0.059961025,-1.422376409,-0.702617249,-0.697674419,-1.12704918,0.397219464,-2.313769752,-1.341928694,0.113186191,0.395604396,0.917569194,0.21900161,-2.358142962,-1.660059465,0.371959943,0.696653036,-0.617816092,-0.885118938,-0.351370344,-0.715268226,-1.810926949,-2.439932948,-0.23715415,-1.913439636,0.815660685,-0.697450697,0.353513036,-2.170344702,-1.777533443,-0.876959872,-0.600315956,-0.071275837,0.121359223,-1.650533631,-2.98013245,-1.705930138,0.138355111,-2.026537998,-1.946902655,-0.862763143,-1.568627451,-1.849775785,-1.085023123,-1.386602298,0.456757025,-0.352897474,0.055555556,-1.886925795,0.015451174,0.465026573,-2.535453373,-2.64131009,-0.908597776,-1.527133897,-1.952983725,0.185898287,0.023375409,2.893229549,-0.096867937,-1.137397634,-1.512401694,-1.725030188
2013/2/26,-1.10938533,-0.109609061,-1.509724629,-1.657458564,-0.770396941,0.241340148,-0.09262935,-1.678908709,0.076977356,-0.197576396,-0.577361564,-0.692894891,-1.463689248,0.018660198,2.616734566,0.455373406,0.836451684,-0.026246719,0.085380402,0.305110603,0.145811241,-0.624693778,-0.074515648,0.596760443,-0.964245976,-0.119989346,-0.905109489,0.889767672,-0.726392252,0.796089385,-1.097136741,-0.185048113,-0.850030358,0.068415051,-0.48707888,0.262345679,0.220264317,-0.754547272,-0.08368979,0.829309259,-0.835460346,-0.252188103,-0.360160687,-0.159535896,-0.270371761,-0.71668533,0.494452484,-0.425996723,-0.524774225,0.146608023,-1.851851852,0.167317345,-1.089918256,-0.657894737,-0.719010641,-3.557312253,0.167080148,-0.913319239,-0.225770037,0.157248157,0.230925876,-0.763880971,-0.651100135,-0.474997855,0.438404209,-2.025782689,-0.709791902,0.499275246,-0.629527014,0.254412466,-0.60298103,0.304342737,-0.354030501,0.113293051,-0.011475786,-1.169337375,-0.38071066,1.134644478,-0.151668352,-0.03125,-1.361141603,-0.065832785,-0.423039375,0.162746824,-0.3685742,-1.125175809,-0.495824635,0.225091814,-0.541162925,-0.879457917,-0.902307826,-1.296891747,-1.675977654,0.318237454,0.044991002,-1.710171017,-0.213910676,-2.053669222,0.028752156,0.2170767,0.104365977,-0.066945607,0.060139524,0.176148536,0.044913541,-1.044099464,-0.739888195,-1.221264368,-0.613873542,-0.8399832,-0.531712875,-0.083115649,-0.696581889,-0.531914894,0.249584027,-0.767699744,-0.636132316,-0.494030465,-0.223463687,-0.471293916,-1.784140969,-0.90628965,-2.641401091,0.08255366,-0.463320463,-0.55401662,-0.420521447,0.073529412,-0.358615743,0.50232898,-2.76002974,-0.540084388,-0.445670628,-0.216535433,-0.251789027,-0.055647156,-0.880339094,-0.513973659,-0.247487626,0.210276263,-0.619140279,0,-0.647668394,0.329706561,-2.108607741,-0.126683558,-1.3566987,0.175131349,-0.566403339,-0.694132014,0.603773585,-0.881834215,-0.741163056,-1.067829749,0.245771288,-0.514666667,-1.833568406,-0.166251039,-0.687714911,-1.985490645,-0.633914422,-0.534138412,1.45631068,-2.664083313,0.110083664,-0.559284116,-0.895522388,-2.278820375,-0.34965035,0.106990014,-0.363636364,0.03785489,0.231201145,0.082644628,0.268652134,-0.492489535,-2.594765343,-1.171965653,-2.19123506,-0.256996002,-0.314691602,-0.255765404,-0.61282989,0.055917987,0,-0.259309947,-0.656573459,-1.231575692,-0.749559083,-0.488334238,-0.725331874,-0.609249515,-0.663961638,-1.259111995,0.486094882,-0.199828718,-0.840336134,-0.460193281,-0.675675676,-1.807969107
2013/2/27,0.683110801,-0.036576445,0.441872287,-0.262172285,0.855442365,-0.0424869,0.132450331,1.942369264,0.826870072,-0.092384849,1.0721511,0.120230211,0.799847648,0.46641791,2.870667277,0.63463282,0.08731718,0.02625361,2.825115504,0,0.383851754,-0.160236657,0.372856078,0.169491525,0.403800475,-0.626534169,-0.265173836,0.489955904,-0.292682927,0.748233338,-1.515151515,0.037078235,2.969993876,0.626709207,-0.217539089,0.046175158,0.843956044,-0.357484517,0.995812006,-0.97865695,1.210201915,0.267697799,-0.709022661,0.261475886,0.497025378,0.451161741,3.024120965,-0.471698113,0.3312477,0.519031142,1.83714002,1.503340757,2.601469238,0.435193945,0.23174971,0.409836066,0.384148807,0.302978578,0.630353968,0.039250319,1.943516262,-1.298253676,1.762711864,0.73274286,0.392841554,1.19047619,0.12997563,0.480769231,0.593683967,-2.172878668,0.715697635,0.513478819,1.079529926,1.320256507,-0.309881786,-2.015775635,1.27388535,1.346297681,-0.13164557,0.031259769,1.914088582,-0.098814229,0.522875817,0.641139938,-0.379672897,0.31116643,0.314712825,0.11820331,0.266265339,0.940031326,1.103134302,0.901292214,-0.355113636,1.12249878,0.824464098,1.236263736,1.403144082,0.615040537,-0.14371946,0.433212996,1.737619461,0.586166471,2.055535521,0.874441593,0.179573513,5.483826184,0.778532384,0.509090909,0.020588841,0.465904278,2.023673158,0.142602496,1.288743883,0.816211652,0.622406639,1.404011461,-0.784541963,0.579230451,-0.761478163,1.915626345,3.633101592,0,0.398112651,0.371185043,0.574088441,-0.139275766,1.300675676,-0.612294881,0.666006838,0.163576881,0.248652614,0.661802138,-0.085269665,0.45373841,0.571276737,0.723815808,0.021929825,0.29060381,0.142846403,0.808611138,0,0.234192037,0.391134289,-0.115018074,2.714665093,0.547433073,-0.229226361,0.895979021,-0.014990256,0.951394732,0.412603151,0.279867819,-0.315910396,0.068409851,0.490337468,1.446140477,0.215517241,0.582847627,0.094428706,1.402415271,2.046783626,1.027317301,1.161995899,1.592435929,0.769738289,0.862767154,1.035391566,0.356652949,1.754385965,0.855005344,0.091240876,0.74419778,0.450351494,1.981833196,0.941590753,0.643405098,2.019921242,-0.827756252,0.32586558,-0.014314343,1.425092451,-0.384325869,0.457483839,2.496274218,0.111049417,0.382754387,0.707565508,0.404935899,0.199911151,1.93565976,1.06148332,0.557258289,1.411065726,-1.181208054,-0.553514117,0.600686499,0.293350717,0.392972723,0.556586271,1.001072578
2013/2/28,0.170294155,1.500182949,1.467725609,-1.088997371,1.253919049,0.283366393,0.674603175,2.072864322,0.642085188,0.620871863,1.377633712,1.066992145,0.86907236,1.002785515,0.727326703,0.855855856,0.981461287,3.12335958,1.633300251,0.861850444,1.318565401,3.12962963,1.634472511,0.817822899,1.088242252,1.220984838,-0.177252585,1.511457825,1.467710372,1.457846238,0.274725275,0.074128984,-0.89206066,0.815309704,1.199073443,0.938461538,1.429692267,1.861546235,0.589753041,0.420565661,0.862851953,1.572233759,0.491458975,1.564763837,2.240539528,2.03233775,-1.910308678,0.71641133,1.063829787,1.151860188,1.779619698,3.126714207,0.686457895,2.581009797,1.213872832,1.224489796,1.102719033,1.918740693,2.314487633,1.167238843,2.464624992,2.362937958,2.409504775,-13.28507163,0.869565217,0.557275542,0.405646601,1.275917065,1.069095229,1.26459144,1.353546291,1.776384535,1.284304448,2.494415488,3.200552613,0.029815146,3.364779874,0.885608856,2.261204624,1.75,0.873553178,1.153972964,0.422626788,1.347473487,2.443076322,1.40033679,0.941176471,0.814639906,1.477889389,1.492324509,0.75510911,0.968575118,1.568068425,2.027027027,0.520368718,2.578018996,3.203074952,0.639344262,0.417386298,-0.531991373,1.280956447,2.097902098,0.306242638,-0.946951852,0.537754873,0.697551987,1.199868508,0.651230101,-1.235076163,2.051714446,0.636227545,1.388394446,2.448059269,2.456728085,0.453608247,3.22124894,0.661692243,0.596462361,-1.421800948,1.119324182,-0.281324389,1.188951893,-0.117491555,1.054650048,0.956494909,1.673640167,1.234283809,-1.108920651,1.322664779,1.696606786,3.885481841,3.253540121,0.576061447,-0.353495679,1.334214003,1.580542134,0.822188117,0.579523503,2.042042042,0.766417001,2.474190103,0.967957276,1.922077922,0.904754071,1.005458202,0.252307284,0.631820793,0.617283951,0.914542729,0.525708424,1.270265222,0.886943252,0.921924517,0.235472845,1.119402985,1.15521691,1.075268817,0.607064018,1.037735849,1.613522858,0.390726752,1.063092212,-1.148648649,1.518491305,0.611086862,0.81746908,1.099310602,1.694915254,-0.532915361,0.777110562,0.455788514,0.575935896,1.760524877,2.024291498,2.085545275,0,1.652967622,1.817320784,2.882663419,1.861130995,2.730102268,2.508677622,0.643500644,3.87131952,0.831946755,2.115107914,1.034589253,2.266023892,1.463090224,0.909334047,1.486836721,1.884178443,0.476016111,2.28198859,1.96445276,0.412283196,1.592460188,1.865070228,1.76301763,2.955752212
2013/3/1,-2.587178922,-0.793078587,0.157311131,1.78435839,-0.60920568,0,-0.499277362,-0.779487179,-1.04857558,-0.800840226,-0.439648281,-0.019478369,-0.955235063,-0.165471594,0.338933098,-1.563197856,-0.410367171,-0.839908374,1.471255774,-0.829354109,0.182196773,2.2266116,-0.76754386,-0.335664336,-0.936110461,-0.092788971,-0.71026931,-0.768491835,-0.916104147,-1.220008133,0.139726027,0.333333333,-0.207020702,-0.123553858,-0.875185135,-0.685871056,-0.343790288,-0.527819668,-0.494686698,-0.575855931,0.202611436,-1.197429907,-0.36365663,-1.241084165,-0.6882146,-0.396170353,1.852511578,-0.262639527,-0.447670901,0.235602094,-1.748502994,0.531914894,-2.933333333,-0.826446281,-0.485436893,-2.419354839,-0.712186862,-2.404408081,0.129511311,-0.407213496,0.194502075,-0.966568115,-2.276916405,11.01047122,-0.862068966,-1.477832512,-0.59793148,-0.503937008,-0.333006856,1.216778738,-1.696047009,-1.471594798,-1.575013348,-2.1431166,-0.156180277,-0.372578241,-0.212960146,-1.975128018,1.665840357,1.812039312,0.411344447,-1.091916558,-0.356102298,-0.061553613,-0.49604121,-0.882789966,-0.103600104,-0.796346176,-0.204801456,-0.772652775,-1.110423542,-0.810061821,-1.473684211,-1.419110691,-0.576837746,0.088183422,-0.847920546,0.910820235,-0.501648273,-1.633420064,-0.320404722,-1.418786693,-0.880695162,-1.160523187,-0.423445509,-1.333159064,-0.081208381,-0.251617541,-1.041684035,-0.56458276,-0.520639643,-0.140449438,-0.691715139,0.190735695,-1.067323481,0.136873802,-0.932400932,3.169086076,1.671245421,-0.292397661,-0.520833333,1.518438178,-0.720482282,-0.515044728,-1.176650367,-0.411522634,-0.675668998,-1.420383753,-1.482004234,-0.258720671,-2.407286923,-0.129632653,-0.562155282,-1.044540796,-1.251466562,-1.144792003,-1.293900185,-1.728553137,-1.545026486,-0.345721694,-0.607955532,-0.79338843,-0.458715596,-0.097815455,-1.137656428,-0.370885489,-0.570776256,-0.204498978,-0.148566335,0.287308673,-1.125228467,-0.603015075,-2.826149015,1.01545923,-0.397388589,-0.103268133,-3.475177305,-1.316511245,-0.56022409,-1.335853812,-0.06486767,-0.708895495,-0.637958533,-1.737032569,-0.629067245,-1.401179941,-0.442314781,-2.150537634,-1.292152537,-0.385559061,-0.998185118,-1.219967634,-0.333118418,-1.746031746,-1.410742144,-0.122940743,0.201027474,0.104651163,-0.947119179,-1.293042867,-2.164127424,-0.972680445,-0.525280346,1.434820647,-1.118445178,-0.986332253,-1.650618982,-0.2316245,-0.589906052,-1.537238272,-0.60483871,-0.135980419,-1.749271137,-0.15936255,-0.389908257,-0.226532635,-0.799744082,-0.745931284,-0.14101531,-1.272133402
2013/3/4,-2.553654252,0.654069767,1.187557462,2.349869452,1.111593229,1.031364792,1.320480655,-0.082695886,0.574529205,0.54261514,0.521878764,0.481404274,0.472768533,1.289134438,1.233661331,1.814882033,1.040988939,1.257700205,-5.128677438,0.430816016,-0.103923097,6.259148662,0.405156538,0.785854617,1.015828018,0.225553934,-0.44709389,1.452081317,0.145985401,1.784136133,2.67844929,0.42451089,-0.754637564,-0.517318938,0.855745721,1.074278699,0.112117292,0.897666068,0.405081937,-0.094776748,0.471804089,0.827667751,0.950915956,-0.476671963,0.42730312,1.09380179,-0.034977265,0.362080316,0.145843461,-0.53538783,2.315943442,0.291005291,1.282051282,1.222222222,1.37733142,-2.479338843,1.600120385,0.940975192,1.524845767,-0.126557632,0.685906561,-0.665977724,-1.042937978,-2.984139879,0.130434783,3.3125,0.861648512,2.15257993,0.727201258,2.261942423,1.691346284,0.631006136,1.274749119,2.487008166,0.357541899,0.254300673,0,0.186567164,-0.029259729,3.273001508,1.30444157,0.675564343,-0.064977258,0.184774575,0.278017448,0.405643739,1.42597874,0.566639122,-0.193820545,1.887682869,0.469320355,0.709219858,1.282051282,0.743761996,0.743826242,0.484581498,1.299660686,1.614227086,0.605012965,0.940484938,0.854339367,0.330851944,1.030683568,0.808430778,-0.290957923,0.927275136,1.462938882,0.954954955,0.547175454,1.384849744,0.897196262,0.293014534,1.456387526,0.081588251,0.456431535,-0.820120284,0.841176471,2.437574316,1.080837649,1.319648094,3.752181501,1.745014245,-1.288507109,0.190735695,-0.726766662,-0.275482094,-0.729684909,-2.42669363,-1.432664756,0.228085868,0.183486239,-0.22984898,0.448,3.027285401,1.914191419,0.048931659,-0.649922891,-0.09771987,-0.657599761,-0.693842151,0.489339392,1.866044652,-0.332821301,0.45691906,0.719217491,0.844246493,2.927669346,0.409836066,1.592024996,0.969472275,0.195858982,1.061678463,0.98413631,1.185296324,1.38216016,0.930373974,2.057310801,0.555864369,1.3771518,1.207050709,1.363105284,-0.598802395,-0.022930521,1.939602259,0.938659681,1.308900524,0.425768234,-0.082417582,-1.915708812,0.633356791,0.886037275,0.806553245,-0.247978437,1.211631664,1.106916533,0.886262925,-0.490414623,0.023231502,1.837649402,1.523565428,-0.610511414,-0.190031803,1.200482566,1.440400207,-0.315223438,0.330866657,0.933954934,0.865930915,0.901098901,0.969044415,0.243407708,0.326797386,2.040059347,1.409949455,-0.2763067,1.135234852,-0.32247662,-0.523798679,0.403469841,2.298450287
2013/3/5,0.417661397,1.660649819,2.21473461,-0.83819242,2.968931689,2.06964061,0.92532256,2.02772605,1.466201206,0.987231802,1.158146965,1.180585581,0.09410879,1.636363636,1.72638909,2.762923351,1.180510839,3.117870722,0.8039751,2.523340903,0.273081925,0.859598854,1.870873074,1.64299638,0.795135641,1.257611861,2.904191617,1.622137405,1.214771623,1.658215373,-0.639488409,0.202168719,2.029687973,0.932624915,1.683501684,2.505314303,1.369745003,1.571767497,0.696864111,0.484874038,1.520572451,1.407211961,2.036293115,1.552975327,1.57260435,1.158469945,1.084674598,0.491964579,0.873786408,1.234081659,2.692399333,1.028752308,2.509041591,2.451518478,1.358618738,1.694915254,1.55023451,0.970338983,2.585084648,1.033239107,0.668380463,0.450814935,0.896961543,-3.064557923,1.780286583,1.754385965,1.64410058,0.80570189,1.209756098,1.825212684,2.063990381,2.444917448,1.285484735,2.607750815,0.222667557,1.521933751,3.902439024,1.452513966,2.609756098,-1.416678837,-0.900287326,1.342062193,0.211313394,1.905815812,2.055449331,1.089056736,1.431492843,1.115154361,1.553575508,2.709587772,0.380622837,0.768245839,1.125175809,1.738509169,-0.826934436,1.753616835,1.606822817,4.334948842,1.804123711,1.470374145,2.172272079,2.061005771,0.621482176,1.813929066,0.920314254,1.246882793,1.521948094,0.678208103,1.170087977,1.52984565,0.741015191,1.23290873,1.373069122,0.652173913,1.197852127,1.350606395,1.044157965,1.392919327,1.358877256,2.336158776,1.597981497,0.420021001,0.345086272,1.401958118,0.46728972,0.552486188,1.41162713,-0.129533679,1.108284884,0.754093972,-0.773504274,1.605767655,1.263672082,3.28629422,2.111398964,2.266058037,1.452489189,1.532442126,1.216338198,0.192139738,2.024695652,-0.719659797,1.053172361,1.721897336,1.428163382,0.626235992,2.063580591,1.911922664,0.600468658,1.558809636,1.098389649,1.725862931,1.032727273,0.607947805,1.293042867,2.452102663,3.383729302,0.923161968,0.679221982,2.681895627,1.43442623,1.598702502,0.940366972,1.97495183,0.324394464,2.399409376,0.940092166,0.82485565,2.5390625,0.909090909,1.756511205,0.715714464,2.183311716,2.075019952,1.199880757,-2.14738897,0.089605735,4.552316804,1.325248178,1.921458626,2.724116443,1.618952047,1.402188782,-0.346909276,1.004464286,1.010602461,0.922233684,1.275204958,1.851448486,1.866169022,1.133144476,1.08577633,1.344965467,1.377229801,2.101131378,1.613582152,0.87350372,0.618131868,1.506931887,3.029787234
2013/3/6,0.874605496,-1.349431818,0.682247491,0.514516722,-0.010846918,0.358268256,-0.284090909,0.628675725,0.2126861,0.117309698,0.513225424,0.287438919,0.319669049,0.626118068,0.221049629,1.994796184,0,1.10619469,0.842374214,0.221511199,0.376086111,0.835882867,0.576161325,-0.602739726,-0.092807425,0.169956857,-0.640093104,0.985915493,1.96831493,1.312997347,0.214534728,0.330154072,1.573634204,-0.263202106,1.880794702,-1.910828025,0.305940342,-0.379562044,0.018211619,0.629392636,0.859030837,1.040763226,0.244366006,1.186222667,0.108522645,0.572601556,1.546094381,-0.554830287,1.311357074,1.789651148,1.856148492,0.992167102,-1.168687982,1.160714286,0.01396258,0,0.471583451,3.139032272,2.017157885,0.791123975,-1.225740552,0.932105869,-0.644516057,0.601167783,0.981228669,1.432818074,2.04567079,1.13741162,0.520532099,0.319003494,0,-0.033692722,0.846113168,0.423579245,-0.311041991,-0.029394474,1.408450704,0.183553598,3.246969337,0.296296296,2.229285684,0.177648579,0.178426602,1.001447876,0.955503513,-0.22589053,-0.050403226,0.441142326,-0.967379078,0.653889515,1.689072734,1.884794579,1.182197497,0.468164794,-0.446694461,-0.430848772,-0.851529712,1.780645161,0.977496484,-0.071736011,0.623871286,0.258481422,0.850833236,1.448731774,0.689501779,0.220378533,-0.015780338,-0.31909236,-1.674168609,-0.390152025,1.581463773,-0.005772006,1.092812067,0.01349892,0.714285714,0.081588251,1.108417042,0.515168861,0.659340659,1.272727273,-0.351821192,1.036946671,-0.299043062,-0.336591973,0.217054264,0.961538462,-0.700107075,-0.129701686,0.970350404,-0.088573959,-1.107467407,-0.095145944,-1.006711409,0.97323601,1.065584168,-0.382592061,0.480874317,2.472703918,0.180592611,0.139470014,0.572410431,-0.444810544,-0.101677682,0.542957522,2.478175162,-0.314444808,0.808743169,-0.021079258,0.98267579,1.734883721,0.929748642,0.467174822,-0.0575871,-0.427413412,0.541140558,-0.03528374,1.949860724,0.153365832,0.01533272,-0.098328417,-0.277777778,-0.478905359,-2.135878209,1.322626358,-0.02155637,-0.036049027,-2.410518627,1.840741751,1.714285714,0.485100485,0.163690476,0.418929403,1.470277131,0.469116497,-0.758524192,-0.573566085,1.768576544,1.077418638,0.386100386,1.706343746,0.138660196,0.375317364,-0.563719586,1.158683299,0.370165746,0.294881696,1.14416476,-0.172065535,0.791274594,0.104684638,0.320128051,-0.912996778,0.717360115,1.280890154,1.356852103,0.276166805,-0.545221296,0.432309443,0.969912906,1.45382455
2013/3/7,-0.793959705,0.809935205,0.006621737,0.438756856,0.092907902,-0.070305728,0.479150479,0.785973398,-0.343320849,-0.039057414,-0.336999214,0.448074902,0.627928772,-0.426666667,-0.476698684,1.870748299,0.148493848,0.170192074,-1.904554012,-0.270137525,0.361757106,-0.265481931,0.680272109,-0.358324146,0.069670228,0.065257113,0.029282577,1.115760112,2.071563089,-0.30108653,0.187316029,0.804387569,0.55539316,-0.415496912,-0.0650026,0.271821202,0.152503601,-0.449394295,0.291332848,0.740123006,-0.414937759,0.314735336,-0.020314193,0.911016949,-1.532124015,-0.290041895,1.681627088,-0.010939722,-0.273126707,1.121161931,1.25284738,-1.13753878,2.141900937,0.776699029,0.739913444,1.25,0.764540792,1.021280059,-0.206728336,0.019144252,-0.245604964,0.803785201,-0.156582038,-2.210448634,0,1.28362933,-0.326340326,-0.835866261,-0.843881857,-0.560266505,1.112565445,0.483091787,-2.857891977,-0.035149385,-0.713171384,-0.529256101,0.810185185,-1.429094907,0.359149093,-0.856720827,0.042016807,0.435273255,1.311528497,-0.107514037,-1.094924376,0.39184953,-0.756429652,0.046232085,-0.193094048,-0.291218638,-0.186440678,1.621284556,0.274914089,-0.55917987,0.927310799,-2.120294245,0.55824796,0.253549696,-0.006964273,-0.258291457,-0.048947626,-0.064453754,-0.092558248,-1.169239301,0.154627789,0.219893934,1.262626263,-0.675795839,-1.052853232,-1.262830902,0.615496017,0.069268067,0,-0.364421649,0.060790274,0.135869565,1.016329793,0.702353834,-0.458515284,-0.119688809,-1.536863967,0.35360069,0.49490102,-1.533907427,0.587871287,0.952380952,-0.364963504,3.584415584,0.284748176,-0.381205674,-1.160931483,-0.243741021,-0.455508475,0.148285449,0.445588051,-0.088014082,-1.490102241,1.034158571,0.252225519,0.713788301,-7.016949153,1.605162999,-0.178117048,0.857687421,0.604561693,-1.26338963,-0.043365134,-0.084334809,-0.266705111,-0.91894116,0.109651724,1.346059716,0.501296456,0.310834813,-0.165608612,0.594152597,-0.75136612,-0.054689636,-0.260616281,-0.467519685,-0.671055964,0.252062328,0.394706292,-0.20979021,0.043122035,0.144248107,-1.291167665,0.415048869,2.122347066,-0.310344828,0.34170257,0.000123609,0.510789117,-0.622568093,0.111308994,-0.326059694,1.3191057,0.505494505,1.75,0.067649844,0.744266551,-0.934190542,-0.048454308,-0.472334683,1.282545274,-0.06300315,0.491704374,-0.767747871,0.148525355,0.91503268,-0.797766254,-0.189701897,0.462962963,0.029764946,-3.386880857,-0.055081245,-0.451467269,0.543724513,-0.627327975,1.09102752
2013/3/8,1.792975725,-0.160685592,-0.128747471,0.946487077,-0.546067868,-0.491803279,0.141770847,-0.799840032,0.150328844,-0.416775202,0.338138739,-0.234927097,-0.307348421,0.910551687,0.643408636,0.333889816,0.974369837,0.291262136,2.582880667,-0.332430436,0.489186406,-0.548674489,-0.284495021,1.078838174,-0.394523091,-0.029998696,0.556206089,-1.310344828,0.415129151,0.237263655,-0.747863248,-1.160681901,1.686046512,-0.372124493,0.676466762,0.15060241,-0.186109466,-0.039254171,-0.199709513,1.438327815,-0.197368421,-0.684540787,-0.291093803,1.714605641,0.550458716,0.032320621,-3.050620181,-0.536105033,0.309597523,1.700894545,2.069741282,1.464435146,-0.961118392,1.847959362,0.415742794,3.703703704,0.571456012,-0.338327695,-0.502735472,0.320604843,-0.447064922,0.639031838,0.828945894,0.336154994,0.042247571,2.083333333,-0.732772061,0.413793103,0.276982592,0.060910614,-1.611650485,0.603756708,1.268556005,-0.17580872,-0.022671156,-0.105232043,2.411021814,-0.371747212,0.890071573,0.715137068,-0.5249895,1.380417335,-0.159821,0.466395599,0.403414954,-0.251539596,-0.990853659,0.02310536,0.119494708,-0.00966075,0.067923247,1.574964205,0.548320768,-0.492033739,0.829875519,0.530503979,0,0.606980273,-1.002925198,-0.580249633,0.865164871,0.014511448,0.106407587,0.687397709,-0.882223202,0.283944244,0.436408978,-0.716204118,0.553309215,1.005403187,0.35984167,1.649746193,-1.187576127,-0.040639393,0.121506683,0.651289009,0.429572688,0.226201697,-0.131607809,-0.93868584,-0.042185193,-0.051564111,0.328309208,0.35528833,0.738234389,-0.136118598,-0.124875125,-1.705115346,0.15971606,0.409361929,-0.881240283,0.71197411,-0.372459296,-0.814362391,-0.181193377,0.232241531,-0.364359059,0.620347395,0.710374427,-0.034572169,1.166605906,1.205211726,0.764720877,0.031496063,2.512974597,-0.983377427,0.21691974,-0.527537455,0.202370627,-1.368863049,-0.583196647,0.241487563,0.275197798,0.059023167,0.276472215,0.128654971,-1.445285616,0.574555404,0.614817092,1.841779975,-0.439770554,0.091428571,-1.896392229,0.490539594,-0.215517241,1.476413396,-0.928909953,1.12,0.855745721,-0.588031823,0.207284572,0.420147812,0.64302012,0.274079875,0.422503891,1.03170609,2.691556327,-0.765361907,-0.17010017,0.676041103,1.572029894,-0.094209986,0.610820244,0.254237288,0.652173913,0.420285794,1.566955843,0.079426049,-0.174788136,1.424870466,0.174239378,0.705946239,2.906770649,0.583244895,0.757470787,-0.137779002,0.242954325,0.405588103,-1.183665417,0.821520619
2013/3/11,-0.809571794,-1.037195994,-0.405156538,0.360620267,0.781789012,-0.041186161,0.18018018,0.604716791,0.325223591,0.575464295,-1.099764336,0.753155627,0.429745889,1.450813871,0.866600369,0,-0.251730648,-0.87124879,-0.940900305,0.605311921,0.384319754,1.33282351,0.213980029,-0.383141762,-0.116495806,0.186569598,0.480349345,-0.861868157,-0.551217271,0.300364026,-0.215285253,-0.623853211,-0.028587764,0.217317487,0.310117586,-0.285714286,0.09322824,0.481052425,-0.327451337,0.249923493,-0.021973193,0.832854681,0.502512563,0.385303426,1.262773723,-2.132471729,2.224527432,-0.09899901,0.106837607,0.297571853,2.270222614,0.850515464,-0.08822232,0.318170092,0.828043058,-0.396825397,-0.186219739,-0.468800517,-1.768464854,0.481755306,-0.30589001,0.8091706,0.09998889,0.871216735,-0.971283784,-0.22675737,1.633422334,0.244200244,0.688229122,0.273930909,0.23024801,0.511224717,0.453091684,0.105671011,0.471711881,0.608384821,0.896860987,0.26119403,0.654843111,-1.627218935,0.316656111,0.2849905,0.208099888,0.470182121,-0.700803588,0.208695652,-0.051321529,0.069300069,0.494458653,1.515086832,1.221788563,-0.36246476,0.136332652,-0.447374617,0.529100529,1.231310466,1.271961933,0.502765209,0.070353173,0.655884865,0.614986244,0.098341099,0.563938442,0.487646294,0.422785937,0.424710425,0.791744258,0.757439134,-0.042328042,0.947995666,-1.219074937,0.056747248,0.600924499,-0.027103944,0,0.431383122,-1.855020261,0.131653188,0.571052054,1.502016129,0.126608989,0.60189166,0.758589915,0.136165577,0.610687023,-1.078287156,-0.175043761,-1.096938776,0.850460666,-0.097491802,-2.963795589,0.947943445,0.181585131,0.466691547,-1.089133701,0.271732183,1.263297872,1.418002466,0.778839089,0.432301574,0.648648649,0.836820084,1.011889704,0.787153652,2.77111644,-0.013443571,0.541125541,0.296987696,0.375072129,-0.386769676,0,0.891351482,0.428816467,0.604630585,0.399779432,0.116808784,0.139664804,-0.489662677,0.977696303,-0.024274791,0.441713079,1.073304407,2.263083451,-2.9986053,-1.598272138,0,0.784538844,0.290084388,-0.424242424,0.487125957,-0.11820331,-0.073855244,0.288540808,0.741897696,1.055506348,0.757160648,-0.526315789,-0.330542089,-0.132525559,-0.349180768,0.22834912,0.503327487,0.125277055,0.169061708,0.288156947,1.360212054,-0.509827102,-0.467331061,0.302435401,0.332056194,0.321113192,0.107845781,1.102307957,0.749111224,-0.389640156,0.27593819,0.775569559,-0.089766607,-0.199640647,-0.623102732
2013/3/12,0.571671315,-0.108420672,-0.014755917,-0.826446281,-0.941691989,0.041203131,0.475334018,0.280504909,-0.860295493,0.130039012,-0.238284353,-1.169546375,0.613953488,-1.116149285,-0.76056338,-0.915141431,0.092534175,0.468994141,0.134126885,-0.527996071,-0.969882593,-2.700663037,-0.782918149,0.329395604,4.676930254,-0.13022529,0.825727944,0.79887218,-0.507621247,0.496277916,-0.080906149,-1.643279173,0.085787818,0.528562716,0,0.09048409,0.050804403,0.889106009,0.292024092,0.25947596,0.879120879,0.583879237,-2.514193025,0.16449623,-0.309954588,0.187080445,0.236779795,-0.57256111,-0.2490217,2.519509586,0,-0.638895988,-0.220750552,-0.600034288,0.273747605,2.390438247,0.023918867,0.580639922,0.15128593,-0.351276939,-1.044522784,0.2787068,-0.776914539,-0.90665982,-0.511727079,-0.170454545,0.540874672,0.258830694,-0.823754789,1.639095462,-1.247046469,0.199026979,1.19395065,-0.914848698,-0.491620112,0.400294118,2.222222222,-0.744324525,0.722869793,1.052631579,0.378787879,0.647300284,1.198083067,-0.396895918,-0.254069822,-0.20826102,-0.80872914,0.694829178,0.656034385,0.774679062,1.106454317,0.242522231,0,-0.969725639,0.058479532,0.651607298,0.569259962,-0.650325163,-0.873172103,-0.302071346,-0.080424642,-1.433403124,1.677272889,-1.080556454,-0.221582096,0.897090862,0.246034654,-0.125290854,0.330298539,-0.523209015,1.960072595,0.317604356,0.719865217,-0.325335502,0.283171521,1.395973154,0.272960822,-0.828324568,0.78619786,0.903764028,0.084299262,0.837606838,-0.199291408,0.21756867,0.075872534,1.773533424,-0.534402138,1.470208924,-0.456781448,-0.239531583,-1.003272251,-1.384688843,-0.181255997,1.104938512,-0.588533097,-1.211234095,-0.426789232,-0.273556231,-0.291630213,0.637052342,-0.232724669,-0.536227258,-0.275482094,-0.031240237,1.944516464,-1.223529412,2.206673843,-0.401861252,-0.646737568,-0.74830145,-0.769935839,-0.501432665,0.071164247,-0.087950748,-0.823836331,1.394294715,-3.347280335,-0.054674686,0.590015129,1.116911497,0.089228808,-0.474469047,-1.037344398,2.060867481,-0.109745391,1.100070972,-3.360546801,-0.236655272,1.673767498,-0.103878116,-0.118343195,0.357230845,-1.325524044,2.093023256,0.467460375,0.805853562,-1.468307091,0.254256025,-4.473933649,0.013477089,-0.825246815,-1.157891591,-0.558229066,-0.995780591,0.175699613,0.602160897,1.81953212,0.189274118,0.613626746,-1.094704684,0.146705788,0,0.170357751,-0.214240706,-0.092038656,-0.798018712,0.529100529,0.561545373,1.190238048,2.282958199
2013/3/13,-0.516851284,0.397973951,0.843282718,-2.463768116,-0.165095278,0.961010434,-0.012786089,0.11988012,-0.113186191,-0.623376623,0.477707006,-0.212550026,0.499260355,0.423280423,-0.156116946,0.587741394,0.411816616,0.359398427,4.183995845,-0.432045426,-0.644329897,-0.858725762,-0.286944046,0.109803148,-0.880222841,-0.052158039,-0.25862069,0.023310023,-0.13973937,-1.507472385,-0.026990553,0.619485639,0.742857143,-0.202224469,-0.212546696,0.436793732,-0.084631009,-0.338950223,0.090991811,0.010149193,-0.91503268,-0.750389353,0.762617859,0.643218831,-0.130151844,-0.406414763,0.57367829,-0.2910299,0.427960057,0.626506024,-0.150862069,0.308641975,-0.309734513,0.5174198,-0.273000273,0,0.325218805,0.722619192,0.01510574,-0.076219512,-0.039583058,0.389105058,-0.302013423,-0.027625535,0.300042863,0.739897553,0.092222564,0.485952923,0.772648252,-0.552486188,0.079755417,-0.474508938,0.052438385,0.177556818,0.112283854,-1.306827669,1.630434783,0.037495313,1.033282498,-1.547619048,0.670859539,0.156862745,0.994475138,0.440109433,0.452830189,-0.330434783,0.634140028,0.6739873,0.752893584,0.164726554,1.691261814,2.399193548,0.816882233,-0.381896346,-0.409117475,0.215796288,0.011979635,0.579053374,-0.296458106,0.158707257,0.595621378,-0.261437908,1.389830508,-0.622336847,0.111037086,0.584275372,0.291813853,0.053763441,1.591187271,-0.350640593,-0.151299395,-0.407055631,-1.794403893,-0.992792058,-0.76643808,0.450092666,-0.160128102,-0.623117862,0.130010834,-0.157480315,0.084228259,0.779793185,0.510317284,0.379647218,0.348749052,-0.134048257,-0.134318334,-1.16929334,-1.067772679,-0.604713206,1.960771351,0.984506133,-0.341807306,0.17452007,-0.541091094,0.040329085,0.032970656,-0.972874124,0.731207956,0.188195038,-1.094563072,0.474937424,0.35158212,0,-0.17802645,-0.551282924,-1.053185887,0.238904226,0.0144655,0.735015773,0.147792352,0.431965443,-0.014222728,-1.445129108,0.609165167,0.2415855,0.685425685,0.027352298,0.736952925,0.288149838,-0.534895568,0.090805902,0.908455625,-0.446114111,1.450230719,0.280800281,-0.550098232,0.922509225,-1.496557917,0.103986135,0.207345972,0.306861421,0.218681662,1.366742597,1.025081788,1.912702305,0.150959672,0.341823795,-0.476284977,0.458159278,-0.196542218,-0.126366069,0.551684088,-0.409137402,0.379805797,0.290727503,0,0.764277029,0.378548896,-0.205920206,0.719137036,-0.942633989,-0.272108844,0.138923971,-0.207277752,-0.138696255,1.084529506,0.134018316,-0.306414945,-0.675888086
2013/3/14,1.196563193,0.648648649,-3.341402582,-0.334323923,-0.598324158,-0.557519717,0.37084399,0.159648773,0.283286119,0.405122844,0.396196513,1.072689592,-0.533578657,0.579557429,-0.241648898,1.001669449,0.544046872,0.338983051,0.17167382,0.570295066,0.285343709,-0.329701034,0.287769784,0.082056893,-1.978417266,0.273972603,0.633823106,0.256350501,-0.278940028,2.018735981,-0.485961123,1.380597015,2.183777652,0.652932568,0.516362228,-0.449895664,0.457394545,0,-0.345454545,0.365333875,0.483729112,0.770328103,0.798128526,-0.163176503,1.013756154,0.529392302,-1.660888044,0.880636004,0.828598485,0.724377395,1.554068638,0.256410256,0.621393697,-1.492793411,0.739118533,0.389105058,1.134575964,1.847695391,-0.317172633,0.362318841,0.593980993,1.893687708,-1.077078425,-4.65876291,0.47008547,0.451977401,0.261056511,0.181351065,1.495112133,0.405405405,1.049276132,1.230735115,0.70754717,0.460829493,1.031852849,-0.148411992,2.459893048,2.173913043,0.619951022,3.681378476,1.249479384,0.548159749,0.820568928,0.355281857,1.277235162,-0.790961438,0.077160494,0.866446544,1.171090787,0.164455652,0.423936083,0.236266982,0.337609723,1.462235765,-0.616197183,1.464254953,1.012157873,1.276595745,0.754019064,0.331316623,0.01600256,-0.327653997,1.404212638,0.145745181,0.110913931,0.391463569,0.796324655,0.671681891,0.727046115,0.230071728,-0.026740351,1.044618529,0.464540105,1.483516484,1.666666667,0.869794412,-2.348493527,0,0.562648777,1.340694006,0.673258994,-2.287636669,0.676968359,0.297648818,1.375037776,0.402684564,0.378278413,-0.077160494,0.347872625,0.957323074,0.886321345,0.383570401,0.321543408,-0.568494407,0.249615975,0.459566234,0.670182377,0.61309663,1.045296167,0.529371585,0.435413643,0.159693389,0.425425425,0.581875,1.834394904,0.458527238,0.851516764,0.206345003,0.83887764,0.062631134,1.217487548,0.382317802,0.625889047,1.097134351,0.509150956,0.964242668,0.465782874,0.382827454,0.328456256,0.50281336,0.819462228,-0.31753232,1.177285319,1.41509434,0.064977258,0.875043752,1.935993678,1.175241577,-0.425402613,0,0.650310375,0.318159569,0.862427265,0.149812734,1.907023604,2.069297401,-3.962101637,0.450549451,-0.259222333,0.912139504,-0.614658017,0.665320689,-0.702666282,0.847312564,1.990005354,1.978036969,1.021152443,0.961760068,0.209511837,0.103172556,-2.60478646,0.163132137,-0.102319236,0.8576113,-0.13616432,-0.347222222,0.347112654,1.795672541,0.138806266,1.06029435
2013/3/15,1.579697135,0.179018976,-1.320532767,-1.006336191,-0.495473397,-0.950362368,0.165626194,-2.072125921,-0.483364721,-0.637771704,-0.631412786,-1.611892692,0.665926748,0.122228043,-1.610145341,2.066115702,-0.853277836,-0.28957529,-1.347088605,0.073964497,0,-1.216640502,-0.448350072,-0.97021044,0.435779817,-0.2081707,-2.290294875,-1.115760112,-0.326340326,-1.228660114,1.139446555,-0.101214575,-0.610602276,-0.693434739,-1.727348616,-2.441229656,0.261382799,-1.36041201,-0.766283525,-0.085945399,-0.612691466,-1.330690827,0.518771331,-0.122582403,0.451404169,0.120680197,1.35911288,-0.649674502,-0.234796901,0.44576523,-0.276301807,-0.920716113,0.441111601,-0.261278523,1.358695652,0,0.593919397,0.059423084,-0.878787879,0.561466844,-1.24655557,0.010868384,-0.068050357,-5.833925518,-0.638026372,-0.618672666,0.076581406,-0.859858199,0.424929178,-0.523403619,-0.565194532,0.328587076,-0.754618787,0.07057163,-0.310834813,-0.356718193,-3.235908142,-2.714600147,-0.911930815,-2.880068109,0.041135335,0.264797508,0.147275405,0.165211234,0.190096439,-1.436418223,-0.616808019,-0.373627118,1.096902216,-1.576182137,-0.075986361,-0.176782557,-1.951547779,-3.024574669,-0.177147919,0.806451613,-0.166014467,-0.790904597,-1.29906806,-0.55994257,0.48,0.493096647,-0.802285965,-1.61025304,-0.487480612,-0.201257862,0.030385901,-0.507072325,-2.309754589,0.648123143,-0.855920114,0.38640406,-2.466091245,-0.351922036,-0.659736106,-1.228116018,-3.759971844,-0.362111683,-2.324080052,-0.194552529,-0.12539185,0.964021346,0.950153486,-0.242587601,0.208674914,-1.604278075,-0.259609748,1.441441441,1.493333333,-0.056717476,0.621465296,-0.47763095,-1.004273504,0.276650682,-0.095767094,0.048394864,0.425624795,-0.703579076,-0.689655172,-0.101919484,0.505780347,-2.200255102,-0.274109145,0.229290814,-0.450337753,-0.231623408,-0.422163588,0.148203273,-1.118760757,-0.309830063,-4.519774011,-1.07117353,-0.395815663,-1.092590411,-1.314348302,-0.085270877,-1.212553495,-1.634432035,-0.148809524,0.738534842,-1.295402591,0.682593857,1.300479124,-0.279069767,-0.38961039,-1.040943789,-2.46124031,-1.703665462,2.319194385,-0.034626039,-0.587371512,-0.024396194,-0.79324199,-0.822737472,-1.765412047,-0.495049505,1.210762332,0,-0.040183926,-0.611458195,-0.102933608,-0.786913836,-0.213260954,-0.059407621,-0.078747047,0.387933917,-0.014440433,-0.091566401,0.125444282,-0.61839732,-0.773825686,-1.221498371,-1.297371116,-0.562711017,0.113239814,-1.017421603,-0.754716981,0.230086556,0.03960396,0.015659255
2013/3/18,0.903397466,-0.607576841,-1.126706403,-2.936746988,-1.459430127,-0.586732933,0.101755279,-0.406917599,-1.343594272,-0.707361802,-1.032565528,-0.673459149,-0.257258361,-1.028950122,-0.868935554,-0.728744939,0.67170445,-2.686350436,-2.166566152,-1.820645479,-0.232798758,-1.345138771,-0.054044316,-0.317372706,-0.502397808,-0.130378096,-2.021681805,-0.376116596,1.075771749,-0.379730261,1.904506438,-0.376899696,-2.122312203,-0.27030071,-0.862519603,-2.069817732,-0.176604154,-0.492562309,0.27578599,-0.612255224,-1.365037428,-1.836441894,0.44818688,-1.063684713,-0.235462005,-0.997150997,-0.471274686,0.01108156,-0.458931513,0.639053254,-2.152600171,-1.006711409,-0.878348704,-0.890674118,0.857908847,-1.162790698,-0.360807835,-0.326829518,-1.253439315,-0.596120962,-0.491629019,-0.347750489,-0.49937578,2.201329366,-0.984589041,-0.565930956,-0.887664524,-1.962872794,-0.272684532,-0.330727601,-0.270984798,-0.655021834,-1.3896172,-1.022566996,-0.890868597,-0.53699284,-3.12837109,-1.960784314,-3.808646802,-2.011407986,-1.315789474,-0.88550567,-0.634674923,-0.318096136,-1.10602064,-0.678087081,-0.930954228,-0.906412871,-0.398015375,-1.912811388,0.41726787,-1.141282959,-2.539464653,-0.584795322,-0.029577048,0,-0.968048462,-1.993024415,-1.237482117,0.346520358,-0.625477707,0.605168466,-0.476401507,-1.851321691,0.668002672,-0.894882783,-0.487393682,0.688483548,-0.844416297,0.2548967,-0.251798561,-0.944663324,-1.619785082,-0.597663678,-0.140873415,-1.103968254,-1.239714756,-1.798010712,-1.454064772,-1.26705653,-0.334798075,0.52855925,-0.101361135,0.607943799,1.36843671,-0.883152174,-1.234256927,1.471707688,-0.700648099,-0.360005675,1.341278814,-1.502159654,-0.809410749,-0.22070995,-1.444274029,-0.922747659,-1.064985873,-0.739371534,0.014467593,-0.442101683,-0.395398994,-0.358656668,-1.036981509,2.69683819,-2.161347072,0.716968249,-2.384737679,0.548870593,-0.406150276,-0.404972688,-1.60335942,-0.745909528,-1.390860062,-0.714604734,-0.541065483,-0.699817934,-9.241877256,-1.30157851,0.089418778,-0.555752631,1.029336078,0.04519774,4.594594595,-1.632462687,-0.195567145,-0.87657784,-1.549771508,-1.181722689,-1.31225768,-0.13855213,-0.59084195,-0.122010737,-1.391484943,-3.46907994,-0.280353677,-0.189528548,0.443066017,-0.20785472,-0.78980158,-0.548348268,-0.961703589,-0.888624874,0.077715174,0.679347826,-0.490367776,-0.439736158,-0.70768342,-0.690843183,-1.461683024,-1.011148561,-0.643042824,-0.761198131,-1.00311311,-0.188631791,-0.94644506,-1.027879471,0.443599493,-0.459116747,-0.811559778,-1.236887428
2013/3/19,1.654648294,0.791082344,-1.750155569,1.667959659,0.621360801,0.249965283,-0.254129606,-0.551583248,-0.460358056,0.408970976,-0.642054575,-1.276785888,1.179071481,-1.744493392,0.160701242,2.691680261,1.251042535,0.696344193,-0.721123091,-0.805500489,0.648172155,-1.984811874,0.576784427,-0.249169435,0.068854717,-0.130548303,-0.508373206,-0.849457291,-1.434521055,0.972660358,-0.394840748,-0.999252964,-0.02853067,-0.598418972,-0.065910888,0.804416404,-0.042122999,0.118800119,-0.073340667,-0.010182262,0.044866071,0.233849752,1.054624121,1.212956582,-0.743813474,0.210293304,10.34949267,0.04432133,0.271899752,0.235183443,-1.110869092,-1.016949153,-2.525476296,-1.392070485,-0.77086656,2.745098039,-0.381395786,-1.081166397,0.108359133,-0.551226003,-1.308585926,0.828789531,-0.262347439,1.30479504,0.172935581,-1.422879909,0.061766523,-0.217290082,1.734867056,-0.512820513,-2.034594738,-1.175824176,0,0.338439615,0.426966292,0.479904019,1.224944321,-1.538461538,2.110915656,-0.957107843,-0.90625,-0.219435737,-0.077893753,-0.118189339,-0.795507721,0.583902264,-0.835291047,-0.159958838,-0.087584848,-0.725623583,0.080906149,0.27866242,-1.61971831,-0.882352941,-0.059171598,-0.505263158,0.83958021,-0.050838841,0.890852466,0.071942446,-2.19077286,0,-0.701324724,-0.281964025,0.0066357,-0.40696935,0.291365419,0.150963502,-0.212901852,-0.179713636,0.613054454,-0.949152542,-0.618424223,0.245968844,-0.282144297,1.464046203,-3.601668765,-2.025710947,-0.894254415,-0.592300099,-0.356917909,-0.746268657,1.521959704,-0.013428226,-0.293470286,-0.753941056,-0.263538213,-0.47511878,-0.793790792,0.071193379,1.323526631,-1.284533303,1.066260472,-1.99078341,-0.622487356,0.299570885,-0.779876977,-1.179391682,0.795602488,0.273270709,-0.63154096,0.130890052,-0.921600808,0.362209478,-1.669663499,0.528813559,-8.089033659,-0.272937224,-0.116516167,-0.551615445,-1.454898157,0.024242424,-0.316637881,-1.319538162,0.26502999,0.108863806,5.250596659,-0.168350168,0.714711138,-1.840665874,0.318390219,2.30404337,0.236864772,-1.398767188,0.522534291,-0.707463742,1.836528759,-0.292319957,-1.32970686,-1.456815817,-0.059435364,0.97727828,-1.147851727,2.265625,0.594723183,2.302397342,-1.213056903,0.778338084,-0.251990727,-0.779989242,-1.166117565,-1.344888324,-0.174723355,0.168690958,-0.158394931,-0.287760155,-0.421818182,0.541835883,0.678109769,-1.047668937,-0.179014046,0.157837898,-0.524109015,-1.259921885,1.141924959,-0.014226775,0.820189274,0.175708324,-1.057673119,-0.372542803
2013/3/20,0.243010142,0.53514092,0.764032935,-1.640595193,0.618762515,0.761878377,0.853503185,0.739523418,0.668036999,1.525423729,0.767366721,1.21851865,-0.200291333,1.398852224,0.401108518,0.953137411,-0.061779242,3.716967152,0.658411144,2.327346319,1.391035549,0.827610495,0.752688172,0.24979184,0.642201835,-0.562091503,0.691313496,0.475963827,1.314553991,0.702941942,1.506342495,0.971236459,0.884703196,0.317995549,0.422107901,1.298701299,1.019806153,1.191535647,0.95412844,0.397148676,1.226904893,1.516477107,0.173936313,1.280130737,-0.057645194,2.578970621,2.932161831,0.775279654,-1.167177552,-0.070389489,1.255506608,1.014225501,1.5,1.858470336,0.053576212,2.671755725,1.166506947,1.818979616,0.633987939,0.707186544,0.867947504,-0.248756219,-1.166514181,2.489022203,0.690548123,1.789838337,1.00308642,1.228806968,1.390176089,1.425257732,0.967392775,-3.102412988,1.302844988,0.905379017,0.82792571,0.597014925,1.100110011,1.015625,1.06990661,0.533290439,0.893514139,0.785422557,-0.358590583,0.780972666,-6.773584906,0.794855765,1.13187681,0.847342135,0.865658558,1.153494746,0.080840744,-0.793965859,0.429491768,1.347675569,0.325636471,1.14261532,1.016949153,2.390640895,0.445082556,0.604025881,0.0327654,1.723297025,0.117713004,0.975039002,0.457832924,1.085429702,1.110942018,0.957616599,1.024109238,1.35972985,1.039426523,0.764316678,1.438500081,1.39040349,0.64672595,0.949116794,1.043533931,2.872763419,1.804646966,1.489572989,1.453855879,0.854408749,-1.042261565,0.456621005,0.824135394,0.828729282,0.528469144,0.779145729,0.835704125,0.91596265,3.047889181,1.908354873,1.227258047,0.695881136,0.822132324,1.404585082,1.162404517,1.413316583,0,1.567024357,0.635554749,0.653594771,1.29969419,0.586466165,0.600835946,0.856487726,0.886001181,0.589473684,1.210265383,0.87163233,1.24015748,1.114881241,0.606410627,-0.425467254,1.001669449,1.098901099,0.680272109,1.37717819,1.537551745,3.680104661,0.686682747,-7.021417531,0.580021482,1.514787208,0.519818064,0.285001781,1.169242965,1.119402985,1.071975498,0.633579725,0.609574784,0.858940237,0.54330457,0.687547746,0.928016052,4.779582367,0.826077249,0.935494398,0.828617623,0.948766603,1.521996579,1.752537056,0.252819914,0.11788481,0.352547153,0.637583893,0.715746421,1.263983915,0.694590613,1.206458444,0.841495379,1.299419408,0.421496312,0.548679342,1.88202765,0.412635174,0.750938673,0.898925674,0.867285196,2.561858541
2013/3/21,0.113347792,-0.461320085,-0.734668735,-0.853374709,-0.195949185,0.151223536,-0.505241885,-1.407014682,0.689127106,-0.169533201,-0.601202405,-0.21969476,-0.321109287,-0.672090555,-0.602890971,-1.258851298,-0.515145271,-0.226217407,0.853517072,-0.716934487,1.016260163,-0.954709512,-0.302383493,-0.276854928,-0.284867821,-0.092020507,-0.537313433,-0.994789199,-3.985171455,-2.068252327,0.182244207,-0.980392157,-0.622347949,-0.453001133,-2.71246552,0.494284832,-0.039629568,0.33712806,-0.254452926,-0.172431281,-0.198368966,-1.651824188,0.587685321,0.094123975,-0.70295602,0.64064603,0.724565757,-0.120892406,-1.383752833,-1.173984503,-1.631498804,-1.864649889,-1.253918495,-0.438596491,-0.669344043,-2.230483271,-1.955202986,-0.955925563,-1.183159189,-0.626304802,0.86986848,-0.628862626,0.011571396,0.691553654,-0.171453065,-1.219512195,-0.297937357,-1.429010449,-0.164533821,0.777128883,-2.599664992,-0.562313518,0.183727034,-0.035186488,-0.106524634,0.148367953,-1.305767138,-0.07733952,-0.161478425,2.430769231,0.312565118,-1.137780549,-0.766703176,-0.281789362,-3.562031977,0.744284955,0.02602811,-0.511015217,-0.282455187,-0.056452523,-0.630048465,-0.600240096,0.213827512,-1.207758936,-1.150781942,-0.460251046,-0.582832921,-0.024838549,0.12864494,-0.128769289,-0.26203734,-0.191785201,0.229550417,0.707319428,0.022016733,-1.05482567,-0.918121613,-0.158088881,0.337909187,-1.137415686,1.347995743,-1.981206838,0.422243467,-0.309222909,-0.46184739,-0.522068425,2.26192739,1.459078172,-1.351650787,-0.11741683,1.599169263,-1.304642494,-2.092050209,0.828877005,-1.138519924,0.616438356,0.695268781,1.221388129,-1.005113737,-1.982728234,0.663378947,0.50048434,0.297777305,-0.112065745,-1.592026922,-0.971182933,-0.733202014,-1.7652524,-1.183983927,0.637263123,0.25009022,-0.746753247,-0.628930818,0.284048438,-1.596987795,0.521564694,2.693208431,-0.376726664,0.086442876,0.025137471,-0.836087886,-0.838926174,-0.373134328,0.701968564,-1.694214876,-0.260416667,-0.750750751,-1.10895481,-0.087361677,-0.198621334,-0.202872493,1.994775588,-1.196070056,-1.397441971,1.917690153,-1.207815275,1.743388834,-0.73800738,-0.303030303,0.034977265,0.458105512,0.035984167,-2.627675355,0.379362671,-2.534791252,1.107174491,-0.752878654,-1.013040198,0.120264582,-1.450053706,-1.624470751,-1.531047424,-1.11542192,0.23549201,-0.509397506,-0.633544515,0.159535896,-1.000393556,-0.376254181,-1.479765037,-1.176470588,0.600436681,-1.364113326,-0.025380711,-0.060610447,0.354399887,0.49689441,-0.434593655,0.479904019,-0.349080754
2013/3/22,0.66874132,0.178253119,-0.241412063,0.273865415,-0.025929496,0.603980782,0.317379713,-0.020682523,-0.050697085,-0.175006482,0.080645161,0.450099373,-0.739466266,0.632122507,0.559485531,-0.557768924,0.911350456,0.501193317,-1.357532207,0.871513944,0.326961771,1.710356177,0.303300624,0.444197668,0.102845389,0.868421053,0.030012005,0.861244019,-0.144787645,-0.065997888,-0.467775468,8.107603213,0.711642471,0.4778157,-0.992371566,0.830003074,0.557120501,0.740163615,0.455539359,0.101605365,1.181537102,0.277493793,0.172619838,0.322407308,0.250499183,0.674013052,0.51241624,-0.033010563,0.725777186,0.403896412,-0.597080938,-0.212596333,-0.544217687,0.72246696,0,-3.802281369,0.718195231,-0.272932242,0.932980874,0.362872422,1.449468085,0.163775232,0.624783061,-0.882099669,-0.042936883,0.287108814,0.436748142,0.118939984,0.183116645,0.919608425,0.165095962,0.77322562,0.078595756,3.027103133,1.439616102,0.207407407,7.276736494,0.619195046,0.467247731,-1.667167318,0.103863731,0.346839035,-0.173446862,0.4827505,1.773347324,-0.307827617,-0.078064012,0.245405776,0.130951084,1.310438319,-0.325150382,0.201288245,0.071123755,-0.098789825,-0.179104478,0.630517024,-0.592171493,1.316770186,0.242683797,0.271894677,-0.509031199,-0.496397118,0.357501955,0.932473572,-0.286154523,0.478774338,0.212668996,-0.316678395,0.778783414,-0.401337793,-2.135106755,0.750750751,0.134867116,0.458530007,0.10086746,1.601203462,1.016109046,0.59047619,0.393081761,0.127351097,1.696647588,-0.841201717,-2.917771883,0.477326969,0.177174074,0.068073519,0.303132368,1.330049261,0.391877449,-0.224759507,-3.937253397,0.610441767,0.689216414,0.186985789,-2.038668946,0.249196141,1.11343843,0.977301387,0.210587466,1.116480587,3.656319634,0.32711809,0.379746835,0.238521169,0.448607996,-0.172952837,0.798175599,0.107142857,0.604577515,-0.279584079,-0.039215686,0.410925792,0.144050706,-0.287770874,-0.168137873,0.397320922,-0.529500756,0.224278105,0.466336345,0.53851557,-0.088439672,0.194412107,-0.237786425,-1.729521979,1.268498943,0.467457749,1.96380439,0.504514073,-0.121580547,-0.27972028,0.102971462,0.023980815,-0.206746464,-0.22675737,-1.216580462,0.547525186,-1.271753681,0.620577028,-0.44044044,-2.356948229,-0.729029425,0.113226459,0.510053948,1.208256419,0.459039548,-0.10738255,0.347523892,1.276208307,0.272765422,-0.106185293,0.15227021,0.813890396,-0.531914894,0.241177964,-0.135777325,0.663512195,0.401730532,-0.632911392,1.691542289,0.031138097
2013/3/25,1.913489747,-0.498220641,0.964017932,-2.153726102,-0.348300499,1.132487379,0.569476082,-0.372362433,1.762617296,-0.73371859,-0.725221595,0.628673404,0.387239535,-1.150137132,0.679042132,-1.282051282,0.513136289,0.712419853,0.150529583,1.87607998,0.175482577,-0.479630165,-0.462468872,0.331674959,-0.662100457,1.226193582,0.720072007,0,0.096665056,-1.492537313,1.644908616,2.004492829,-0.367439231,0.384963768,-0.143188327,-0.487804878,-0.763612218,1.082753287,0.243424633,-0.406008932,-0.452908436,-0.058258083,0.662778367,-0.415104446,-0.847396248,2.029755579,0.058823529,1.023665382,1.008766663,-0.212967345,-1.379310345,1.251664447,-0.683994528,-1.766969909,-0.428571429,-1.581027668,-0.74142681,-0.269712835,-0.261901094,-0.39961941,-0.275265435,0.119716645,-1.057836035,0.426304679,-0.987972509,-0.085886058,0.427220018,-0.087658794,0.767684153,0.19106408,-0.638692398,-1.019239579,0.484293194,1.46908097,2.212001752,-0.014784151,0.513874615,1.769230769,-0.661837045,-1.481594623,1.701597842,-0.141398272,0.773969357,-0.093742676,-0.938241056,0.661667402,1.09375,0.256191289,-0.021977974,-0.18956289,0.260968847,0.241060667,0.639658849,0.568603214,0.044856459,-0.417710944,-0.315720498,-1.262873958,-0.384505839,0.014271443,0.67667932,-1.770196331,0.701324724,-0.51774094,0.485651214,0.749682338,-0.363801728,-0.202965055,0.960735171,-0.537273338,0.214592275,-0.091711567,-0.047536048,-0.241643174,-0.403063281,1.42118863,-0.74828263,-0.037871615,-0.727150688,0.773114177,0.180904523,-0.605955679,0.440194293,0.541039852,-0.117907148,-0.884353741,1.057756884,-0.194457948,-1.352909865,0.081095693,0,-1.133642025,-0.547598989,0.597237775,-0.604189044,-0.898083554,-0.850414304,1.935685295,0.231884058,-1.021753461,2.213926029,0.032605152,-0.151324086,-0.535395598,-0.302114804,-0.086626241,-0.961538462,-0.337873287,0.801259121,-0.441028226,0.333464104,-0.637939336,-0.172612198,0.440576838,1.642105263,-0.706693804,0.684410646,0.587412587,0.783289817,1.129483,-0.69549823,-0.28698572,-0.065005417,-0.293326815,-0.104384134,0.501073729,-3.455249245,-0.792602378,-1.337492392,0.05259467,0.661278472,-0.575401582,-1.504743212,0.454545455,-2.182890855,0.394249619,0.338983051,-0.649210128,-3.659762719,2.553369611,-1.274110777,-0.231140996,0.078071631,0.281876969,-0.615114236,-0.651706531,1.435786436,-1.54958076,1.136220967,-0.425192665,0.359364202,0.511302476,0.606060606,-0.729390908,-2.062089282,-0.168326554,0.061557402,0.83461454,0.156555773,-1.649805447
2013/3/26,-0.270735275,0.536480687,0.699410609,-0.191402823,0.120228799,0.418240691,0.478167862,0.332225914,2.517133956,0.590005233,0.568181818,0.664840556,1.193975018,0.832363734,0.404215389,-1.37987013,0.387992649,0.109643952,2.130335574,0.096922704,0.425425425,-0.596910928,0.893495354,0.137741047,0.896345668,0.244845361,0.834078046,0.806451613,-0.096571704,0.107267364,1.643976368,-0.220227003,0.879432624,0.789533048,0.839877091,0.90379902,0.635664102,0.841622035,0.933334781,0.14268243,0.619415666,0.903526669,0.447721886,0.739545516,0.818115413,1.104051661,0.254752107,-0.860645021,0.487456902,1.268674413,0.067674261,-0.276170437,0.826446281,0.997328584,0.34920549,0.401606426,0.690311831,0.238665288,0.401606426,0.697363393,-0.35488959,0.783375041,0.70889018,-0.39561698,-0.173535792,0.229226361,0.835612276,0.296088515,0.235806276,-0.33005721,0.131324302,-0.196690964,0.508010942,0.471380471,-0.299978573,0.428803785,0.204498978,0.680272109,0.891329792,-0.775193798,1.571107937,0.755191945,0.862068966,0.645320197,1.124063281,0.613496933,0.85007728,-0.43157297,0.574600065,0.793207463,0.536847243,0.521042084,0.494350282,0.46705998,0.224181737,0.356543624,0.652563643,0.396622377,0.414581844,0.51369863,0.278688525,-0.294888598,0.342692903,-0.281703591,0.373462214,-0.832387439,0.532481363,0.610133522,1.261894911,0.864280891,-0.107066381,0.338496845,0.36461636,0.363342753,0.445163901,0.611464968,0.72920529,-0.075771927,0.901510029,-0.543882439,2.668539326,0.992858387,0.408039897,0.984381152,0.752545374,-0.06863418,1.51187905,-1.29079396,-1.560321957,0.65724318,0.624219725,-1.259689922,0.582380347,1.753246753,0.567337566,1.399789627,0.505828018,0.765696784,0.824175824,0.033300033,0.552450522,0.489243807,0.505178075,0.448564593,0.658761528,0.468187275,1.027984009,0.31585597,0.553584102,0.09808885,0.606060606,0.787401575,1.296829971,0.832198517,0.331400166,0.199282583,2.341389728,1.028921023,0.546919977,1.197466897,-0.025340634,0.442787229,1.588248049,1.299338073,0.501567398,0.445156695,-0.058869433,1.118508655,0.090991811,0.490625548,0.496350365,0.301422715,-0.154987269,-0.150829563,0.897165259,0.60532425,-0.427927928,-0.544543672,1.774159883,0.585034014,0.600466033,0.410079786,0.258410531,0.85978836,1.096374889,0.324609454,0.433885767,0.618630422,0.273105332,1.28102482,0.509571684,0.589022758,0.531537916,0.454116386,1.712170292,0.309119011,0.061519532,0.130690481,0.859710825,0.26902991
2013/3/27,-2.127986211,-0.106723586,0.632121118,-1.238513783,-0.799705366,-0.255273411,0.525986224,-1.572847682,0.589522305,-0.417474087,0.242130751,1.562559841,0.635324015,-0.603586011,-0.790797987,-0.24691358,-0.834011391,-0.180184424,2.576586538,-0.38731542,-0.16944929,0.752371606,0.779312788,0.412654746,0.022779043,0.154261473,0.620384047,1.223529412,-0.386660222,-1.138494508,0.227445034,-1.290322581,-0.871766029,0.123097583,0.352112676,-0.166995597,-0.515292553,-0.379362671,0.304768734,-0.08141665,0.305513184,-0.187752744,0.616151023,-0.453817405,0.144906535,0.978675183,0.293197811,0.274645264,0.153809749,-0.421496312,-0.450856628,0.013187393,-0.182149362,-0.881678716,-0.728351767,0,-0.661938534,1.126765146,-0.015384615,-0.417417702,-0.448489645,0.442621181,-0.99238403,1.447584704,-0.695349848,-2.058319039,0.346542112,-0.264139217,-0.904813608,0.802119361,0.683371298,0.162300023,0.311041991,0.100536193,0.429830217,0.559481743,-1.224489796,-1.726726727,-0.722827057,0.1878125,-1.707513057,0.085883823,0.108780109,-0.419763618,-0.555784273,1.106271777,0.945083014,-0.034219231,0.727131078,1.795610729,0.116504854,0.458532695,-0.140548138,-1.052116467,-0.387712496,-0.104493208,-0.47615655,-0.33321212,-0.526765376,0.141964793,-0.817394147,-1.117318436,-0.848297896,0.359109409,0.437732545,-1.011064479,-0.832324455,0.685533486,-0.612870276,0.174052751,-0.107181136,-2.052718852,-0.300110567,0.509519979,-0.28203062,0.582425931,-0.355828221,0.454976303,0.558409649,0,-1.113933946,-1.000344947,0.541842264,-0.389914219,0.380785003,0.412087912,-0.081833061,0.986923267,0.054814544,-1.091234347,-1.985111663,-1.292116454,1.452784504,-0.501413073,-0.510409671,-0.702202362,0.361050328,1.170212766,-0.07744156,-0.08322237,-0.608546685,0.194290645,2.839909525,-0.05954153,-1.426701571,-0.220390064,-1.243075184,-0.05247691,0.169395822,-0.003161056,-0.291488535,-0.697115385,-0.597439545,-0.31512605,-0.330305533,0.017047392,0.590405904,-0.275254611,-0.572573719,0.125156446,1.120747522,0.185614849,0.05869484,-0.266214908,0.956539821,-1.542279738,-0.293542074,-1.027126679,-0.246533128,0.435919791,0.174317257,-0.745281885,-1.66315556,-1.057401813,-1.404020025,1.511753289,-0.203573852,-1.719229085,-1.271534044,-0.300825105,-0.329621381,-0.226103372,-0.568983125,-0.459016393,0.437292286,0.188742838,0.015155807,0.127822644,-0.319818426,-0.210803689,0.424773911,0.532339633,-0.140994008,-0.46984127,2.479526843,0.112060513,-1.444820166,0.065259952,0.058117009,-1.246843434
2013/3/28,-2.021124431,0.641025641,2.388522683,3.236245955,-1.002105141,0.188577586,0.847140899,-0.588730025,1.582985922,0.117539506,0.885668277,1.229307289,1.893939394,0.910876942,0.47826087,-0.082508251,0.307692308,0.094384143,0.143099802,0.899149453,-0.104837502,1.50742115,0.597539543,0,0.113869278,0.205365165,1.379917792,0.39516504,0.752062106,1.612789595,0.2899647,0.533195734,0.65248227,0.581200402,-2.267206478,1.170924574,-0.785296575,0.542650419,0.661304736,0.499083316,0.531824759,1.273332369,0.299674267,0.56315366,1.881059181,1.805753928,1.188852076,0.77816747,0.425280567,0.435038213,-0.249094203,-0.105485232,-0.136861314,1.156377869,0.081521739,0.8,-0.173726797,0.149089768,0.169256809,0.295322473,1.077514244,1.450988822,0.990675991,-0.16969578,0.612691466,2.043199066,0.600600601,0.327153762,0.054784514,-0.270112425,0.87069793,-1.446759259,0.684754522,1.171744225,-0.363791997,0.204978038,1.962809917,1.833460657,1.698876404,1.777598947,2.861230329,0.366643264,1.521266687,0.76067876,0.600289795,0.180925304,0.227732794,0.387950707,1.847674294,4.202961672,0.546289113,0.178606866,0.633356791,0.692383778,0.928143713,1.757322176,0.238620772,0.347480764,-0.629740947,1.58775163,0.181308719,0.315719508,1.066666667,0.381679389,0.991501416,1.072782167,0.410193804,0.453910615,0.966084275,1.630580059,-1.144492132,0.478692353,0.00792142,0.747065101,0.848484848,1.762336354,0.320157616,1.339875448,1.310528654,2.010933229,-0.711462451,0.261324042,1.871257485,0.600208768,1.342135979,3.967168263,0.573300573,1.001710237,0.967859752,0.479291011,-0.337341772,0.414250207,0.103766732,0.146600696,0,1.044680167,0.043606236,-0.976415803,0.723348068,0.049975012,1.427842937,0.534153448,1.588465298,1.131963062,0.385075023,0.39584858,-0.458497662,1.007665652,1.211950395,0.847189733,0.428766322,0.629387557,1.116199199,-0.767725425,0.718033692,5.880347708,1.100513573,0.248688932,0.863806507,-0.965909091,-0.012596045,0.648448356,0.511945392,0.702499393,0.556127703,-0.036010083,0.981354269,0.612027674,1.637318505,1.631944444,-1.102088167,1.041540511,1.105085128,0,0.69647066,0.21032058,-0.566636446,0.601671309,-1.329455754,0.437404013,1.734000715,0.663770849,-0.361928984,0.304677207,1.706722396,1.022673754,0.409711276,0.857105654,0.86938522,0.844996039,0.177377541,0.809107757,-0.317684433,0.395509058,0.932297447,-0.153910732,1.060511541,2.456521739,-0.077444337,0.974908103
2013/4/1,-3.14288658,0.353857042,-1.155040521,-0.940438871,-0.00629649,0.699112665,0.407659049,0.444162437,-0.730863023,0.091312288,-1.675977654,-0.167628981,0.920693928,-0.619469027,0.259627867,-0.082576383,0.220858896,1.909476662,-3.780230711,-1.05973025,0.374812594,-0.199908613,0.209643606,0.575342466,-0.432211101,0.883822211,1.216333623,-1.273442927,0.072236937,0.35946475,0.465116279,-0.804106074,-0.817361894,-0.011112346,4.322010494,-1.390350218,0,-0.216835527,-0.177556818,0.182426269,0.551053485,-0.385769396,0.337750065,-1.2,-0.639113762,1.914019441,-0.847457627,0.125067972,-0.799905893,-0.456567549,-0.885357548,-1.451953537,-1.690269529,-0.369328174,-0.217214228,-3.968253968,0.722340096,-1.093003212,-0.368663594,0.132978723,0.415294586,0.413179362,-1.431044432,-1.009523295,-0.086994345,-0.915331808,0.014925373,0.916149068,-0.839569264,-0.080521192,-1.719567729,-0.333294187,1.360195047,0.529450695,0.300687285,-0.409117475,-5.369807497,-0.450112528,2.784161216,-0.612932884,1.927279952,0.264262397,0.637155963,0.882694541,0.37037037,0.85999312,-0.07573845,0.55126165,0.559012762,0.12539185,-0.534479987,-0.158478605,0.34965035,-0.049115914,0.385642243,-0.945723684,-0.60108314,-1.657185258,0.288059916,0.572146246,-0.197433366,0.049693556,1.011433597,1.55418251,0.485489265,0.781746536,-0.286935324,0.695342371,-0.590390879,-0.052603893,0.03617945,-0.952823611,0.308910891,-0.291313559,0.921474359,-0.507174666,0.711918498,0.130353818,-0.646787985,0.306220096,0.019904459,-0.347523892,1.491550331,-0.285343709,0.187302314,1.578947368,-0.700325733,-0.290275762,-0.850063303,-0.28800288,-0.169559336,0.346534653,0.8603711,-2.214089661,2.970163359,-0.1272467,-1.612727471,-2.184466019,-2.935309205,-0.066600067,0.01675884,-1.143133151,0.072167428,1.001472754,-0.793650794,0.135847056,1.265094882,0.613787769,0.417710944,0.308256536,-0.213467883,-0.408948761,-0.28304557,-0.36407767,0.548395942,2.919081348,-1.378809869,-0.495868679,-0.228375678,-1.308089501,0.07558579,0.322135297,-0.382003396,-1.709659153,-1.249487915,-0.241354467,7.755102041,-0.565194393,-2.401215805,0.683293475,2.19941349,0.383555076,-0.178543349,-1.526717557,0.248363062,-0.593597626,-0.364713928,0.863883044,1.326315789,-0.027016075,-1.265155509,1.527631894,-0.255252307,-0.48436089,-1.164383562,0.343656344,0.169252468,-0.849821783,0.738764621,-0.340403247,1.38926723,1.561104749,-0.247875354,0.482907612,0.752144271,0.686659193,-0.046296296,-0.10608954,0.213136989,-2.564102564
2013/4/2,-0.313391386,0.564174894,-0.176238458,0.079113924,1.35519075,0.694259012,0.762795276,0.810696989,0.244935327,1.199009514,-0.974025974,0.563432836,7.875622039,1.442564559,0.460365415,0.330578512,0.514201763,0.300717095,-2.959385596,0.851996105,0.622354991,0.045784925,0.906555091,1.661672569,1.492117889,0.647536821,1.115879828,0,0.577478345,0.106284044,1.401401401,0.655398413,-1.193520887,0.333407424,0.476505625,0.449660849,-0.084119232,0.615955438,0.12451085,0.177035913,0.666236836,-0.831899025,0.56965303,-0.148448043,0.371640938,0.678466077,0.796425796,0.906967903,-0.806355982,-1.446548277,0.503893724,0.696490758,-0.557620818,0.882612533,0.054421769,-1.652892562,0.15147929,0.293104131,0.493370336,0.350977044,1.409921671,-0.091580502,-1.100573703,0.500631452,0.543752721,-1.252309469,0.134308312,0.430835513,0.368120744,0.087912088,0.116874136,-1.374163094,0.519053045,0.855826201,0.492505353,1.115023474,-1.017130621,-0.602863602,0.902915126,0.092506938,0.292397661,0.542635659,3.681892286,-0.13815335,-0.758507585,0.588335607,0.922182921,0.141298819,0.629326621,0.125234815,3.85051109,7.261904762,0.6271777,-0.515970516,0.295508274,0.166044002,-0.053885762,-0.993460765,0.789889415,0.319134175,-1.236399604,0.562913907,3.373966043,-1.027753077,0.236203565,0.435139055,0.533455266,0.534862729,-0.245750563,0.006315789,-0.433996383,-0.633505397,1.152874289,-0.557768924,0.476379516,-2.747730946,0.524070689,0.130184118,-0.838574423,0.057240985,0.298507463,0.64516129,13.89270977,0.598335068,-0.661014514,1.03626943,0.434639987,-3.566229985,-0.164173659,-0.135391281,0.97519084,-0.213780628,0.524152107,0.767215569,-0.013111315,-1.122790253,0.509469487,-1.426799007,-2.157956547,-0.28323892,-0.653485255,-0.586319218,-0.697115385,0.262467192,0.826666667,0.827211965,-1.022146508,-0.433973962,-0.152523572,0.511432066,-0.252819914,-0.338164251,0.567697985,0.715590743,0.190891737,1.266944734,-0.367917586,-0.691754289,-0.042918455,-0.919660505,0.664652568,0.917431193,0.830847891,-0.490316254,0.96453018,0.747481313,0.910894661,-1.45306852,-1.027717222,0.237529691,1.262553802,0.417910448,-1.340632332,0.465116279,-0.007507508,0.490509704,1.692976436,5.41341825,0.39476418,0.418862316,-0.934329952,-0.253496927,1.141732283,0.395974262,-0.693000693,-0.289381811,-2.23880597,0.619914366,0.672234671,0.656857593,0.832885545,0.181018878,-1.88143415,-0.136587834,0.705055444,0.626304802,0.231588698,0.514018692,1.256767208,-3.281351527
2013/4/3,0.917027557,0.070126227,-1.074649779,1.581027668,-0.41443631,0.397772474,-0.402930403,-2.809399478,-1.811009503,0.244687701,-1.31147541,-1.601053764,0.195121951,0.070224719,0.27208936,-3.459637562,-1.218026797,0.302121771,-6.723350466,0.289645185,-0.841167739,-4.64504319,-0.207325501,-0.294748124,1.298648676,-0.592910307,1.584606678,-1.454033771,1.004784689,3.224950232,-0.419545903,0.334132968,-1.926948519,-0.465219318,0.289816888,0.060698027,-1.10407795,-0.028388165,0.515189199,0.03534461,0.096071734,-1.648828464,0.643666323,-1.094742533,-1.488180006,1.50405313,-2.61129312,1.25941873,-0.645546922,0.322195704,-3.828623519,-0.239425379,-2.102803738,0.402449694,-0.598313843,-2.521008403,0.49983457,-2.318233877,-1.166001841,-0.340296814,-0.244593203,0.366235379,-1.029951462,1.052220779,-0.757310055,-2.649227333,-1.579731744,-0.720085797,-1.081973226,-1.112575026,-1.788366294,0.155316607,-0.037783375,-1.762402089,0.106541658,0.841555427,-2.109248242,-1.288855193,-2.403272541,-0.308071473,-0.524781341,-0.447185813,-0.175849941,-1.383444777,-0.764304896,-0.788336018,-0.86368757,-0.82402077,0.031269543,-1.375859912,-1.354028394,-0.240473548,0.138504155,-0.740923685,-1.237477902,-1.284707833,-2.821541964,-2.349803125,-1.166999145,-1.01659751,0.100150225,0.049390846,-0.663297536,-1.586010573,-0.214224507,-0.860228557,-1.591873863,0.600858369,-9.361527407,-1.558848915,0.472212132,-0.779220779,0.68696331,-0.507478632,-0.197550375,-3.681922782,0.545586809,0.055720654,-2.325581395,-1.258581236,-0.711111111,-0.467775468,0.21612001,-0.310318076,0.405033994,-1.474358974,-1.314607659,-3.597484277,-0.054814544,-0.542299349,0.440992106,-3.510217535,-0.265821491,0.167130919,-1.848937844,-0.700652331,-2.137741047,-5.317809943,0.330082521,-1.203007519,-0.742115028,-1.408912189,-1.113531832,0.145433392,-2.11584237,-0.347860331,-1.376936317,-0.498132005,-1.110956812,0.071508519,-0.409436537,-0.096946195,-0.366920689,-0.400604686,-0.367446924,-0.036039747,-2.34859675,-1.81108944,-1.245169601,-2.345721025,0.177571028,-3.75,1.605746884,-0.66518847,-1.119671289,-1.863799283,-1.117168648,-2.780026991,-1.982378855,0.541638456,0.255029753,-0.511296076,-1.245612048,-2.854938272,-0.743299046,-2.175297114,-1.687289089,0.546875,-1.510761589,-1.681916039,-0.026946915,-0.190454239,0.437913585,-1.133935908,0.680390789,-0.925247953,-3.355898027,1.19032213,-0.343990287,-1.487862177,-1.185718092,-2.968508002,-2.424023155,-1.838859198,-0.314295004,-1.106500692,-0.616142945,-1.314399222,0.171854115,-2.955995969
2013/4/4,-1.175967257,-0.946040645,-0.632395732,1.595330739,-1.170002169,0.316957211,0.435209023,0.795185902,0.444363282,0.52672148,0.083056478,-0.047135127,-0.210970464,0.315789474,0.085689803,0,0.143855323,-0.117265641,-0.274016969,0.19253911,0.299401198,-1.301817746,0.55401662,0.295619457,0.022222222,-0.634517766,1.532033426,-0.237981913,-0.710563714,-0.141424531,0.67905824,0.315942276,-0.410557185,-0.706654796,0.236437672,-0.909918107,-0.153387303,-0.509433962,-0.03534818,0.474459923,-0.693185454,0.235294118,0.294192888,0.218638972,-1.076978677,0.77937073,0.710794499,0.297650686,0.192515943,0.166527893,-0.118483412,1.146666667,0.31026253,0.400836528,0.547195622,0,-1.216916909,0.10511846,-0.434647625,-0.123304562,0.864627694,0.231481481,0.28708134,-0.189859649,0.17452007,-0.840840841,0.393700787,0.848765432,0.667408231,0.947446336,0.042200028,1.097459144,-0.264583596,0.398671096,0.127713921,0.201438849,-0.110497238,0.076804916,0.209570381,-2.008652658,-0.312622118,-0.371747212,-0.264239577,0.315641805,-0.12489592,-0.256322625,-0.227272727,0.330070567,0.458476607,0.528429508,0.299731819,0.593361765,-1.313969571,0.199054491,0.387828162,-1.133501259,1.220564665,-1.040582726,0.488747279,0.07685321,-0.208437552,0.526575613,0.222575517,-0.509321545,0.300558179,0.424346064,0.13865352,0.392491468,-0.946319366,-2.043571238,-0.542299349,0.333174679,-0.186075361,0.348993289,-0.534441805,-3.02628086,-0.783793561,0.946723594,-0.615174299,0.424874469,0.176653025,-1.270670148,0.24102499,0.259403372,1.037314508,0.455432661,-0.066192289,-0.652400835,0.530164534,0.318066158,0.731968915,0.649017933,0.307534598,0.266963293,-1.122244489,0.235198702,-1.035919378,1.196410768,0.478540452,-0.727211229,0.764655905,0.033233632,0.073439412,0.203311066,-0.027019724,0.07244945,-0.465386853,0.438047559,-0.337031316,-0.003106844,0.039154268,-0.12130034,-0.764872521,0.309630417,-0.136593362,0.164812526,-0.317652398,-0.510783201,-0.724637681,-0.300408556,0.411933591,3.376623377,-0.644624662,0.545634921,0.457095367,0.036523009,-0.397686189,0.333148251,0.321027287,0.505050505,0.113058225,0.215130871,0.596261897,-1.141382049,0.226928896,0.206096106,-1.510297483,0.595700596,-0.651397352,0.410565211,1.11410602,-0.159217283,0.058133902,-0.76462766,0.727776815,-0.060467616,0.327868852,0.196847432,0.028426396,-0.675675676,0.323580963,0.188880021,0.741564702,-0.554767127,-0.434877147,0.587412587,0.433973962,0.438972163,-2.411361037,1.436483212
2013/4/5,-1.309796395,-0.565970994,-0.956582852,1.914975105,-1.882989766,-0.694444444,-0.37229173,-0.319829424,-0.860553906,-0.536741214,-0.082987552,-0.72999585,0.260204911,-1.416579224,-0.6706621,-0.682593857,0.451467269,-0.52946593,-0.781577171,-1.681479702,-0.472636816,-1.945052273,-0.41322314,0.723472669,-0.266607421,0.127713921,-0.713305898,-1.001908397,-4.580152672,-2.858246427,1.14710516,-0.697991147,-1.855123675,-0.924628748,-1.03525095,-1.2090603,-0.853460783,-0.957709084,-0.601131542,0.281322214,-0.837628866,-0.792253521,0.140288229,-1.240796291,-0.628379366,-1.212526255,-0.185089853,-2.140964494,-1.128857932,-0.356252227,-1.304863582,-0.659108885,-1.065905306,-1.547647978,-0.353741497,-1.724137931,-1.761569225,-2.649434572,-1.777362021,-0.902184236,-1.164278403,-1.32269578,-0.942270992,-0.810167966,-0.871080139,-2.180496669,-2.307692308,-1.04055088,0.856353591,-0.483941927,-1.335770529,-0.389380531,-1.844365841,-1.2574454,-0.93537415,-0.603101666,0.884955752,-0.92095165,0.217845939,-3.595080416,-0.999607997,-1.585820896,-0.632911392,-1.666472439,-1.834097541,-0.616755182,-1.670463174,-0.158820193,-1.265428897,-2.176198486,-0.267379679,-1.142857143,-0.911002102,-0.52148001,-1.396731055,-1.231422505,-0.950060901,-2.024185068,-0.286944046,-0.516615471,-2.230762804,-0.425601571,0.200930626,-0.994880711,0.192636986,-0.681130172,-1.215384615,0.475947646,0.680962769,-1.406721153,-1.454016721,-0.308349146,-3.231318937,-0.642054575,-0.577114428,1.532986586,-1.349052018,-0.827510114,-2.682255846,-1.326923077,-0.416916018,-1.137165021,-1.797013414,-0.802069858,0.285184657,0.647668394,-1.225368438,2.836879433,0.072740498,-0.434821995,2.013075965,-1.118275921,-0.510986203,-0.488129576,-2.513173895,-1.5130674,0.637160086,0.295566502,-0.029766334,-1.090289608,-0.573355818,-0.930232558,-1.663405088,-0.231884058,-3.756756757,0.638409899,-0.64289889,-0.228452752,-0.972241792,-1.550363512,-1.624266145,-1.433082342,-1.256066229,1.242264219,-2.270551224,-1.378033731,-0.493171472,-1.197946378,-0.321167883,-0.566469808,0.012431626,-0.662402924,-0.565089996,0.320670942,0.12409514,-1.971522453,-1.08892922,-1.743220808,-0.256,0.033500838,-2.173913043,-0.60822898,-0.022797219,-2.380627174,-1.411320755,-0.865988309,-2.091078067,0.370751802,-1.120981387,-1.608286766,-2.03483206,-1.370113152,-1.471869856,-2.144053601,-0.610700155,-1.714285714,-3.03030303,-1.042618208,-0.982461838,-1.56062425,-1.317027281,-1.11786729,-0.625690099,-1.621691749,-0.76435903,-0.15294772,-0.864197531,-0.906086771,-3.955464401,-2.559290224
2013/4/8,0.669677854,1.280683031,0.77265739,0.075159714,-1.030396703,0.52696119,-1.604998775,1.796791444,0.544043034,0.06424258,1.287375415,0.666958025,-0.575831306,2.46585063,0.244217785,2.319587629,-0.367722165,-0.173570933,-2.171544243,0.830686538,-0.599850037,1.642697744,-0.968188105,-0.292631019,0.155936734,-0.191326531,-0.718430506,0.240963855,2.35,2.014579192,-0.048673643,0.840048003,1.920192019,-0.282692308,0.503177966,0.836560806,0.416200396,1.359502154,-0.613660619,1.041979762,-0.129954516,1.330967169,0.318390219,0.483225183,1.669117647,-0.434908669,2.017716535,0.509043648,0.631604518,1.751877011,2.259615385,1.6985138,1.91909961,1.307512201,0,-0.877192982,0.479790637,1.269498838,0.825396825,0.718735026,0.556634304,0.042553191,0.794701987,1.144968435,0.307557118,2.229102167,0.555812876,0.371114891,0.794302931,1.385204833,1.068832835,1.53991945,0.077220077,0.268096515,0.708154506,0.548974285,-0.657894737,0.387296669,0.217372402,3.925417076,1.187883587,0.379146919,-0.696193157,0.391087936,0.902335456,0.112049647,0.926640927,0.943074651,0.073537136,0.698549167,0.346948431,-0.503449562,1.768033946,0.698951573,0.180831826,1.762682717,0.866945401,1.744030051,1.726618705,0.631578947,1.085284567,0.690448792,1.783641161,3.43902439,0.06408887,0.228600457,0.903286093,0.372187447,0.635930048,2.878494326,1.069715972,0.773257197,1.204045593,-0.350026925,1.321056845,0.080884335,-0.135518049,0.445021324,2.120141343,1.091405184,0.258408285,0.722246991,-0.721649485,0.078247261,1.208588085,-0.386100386,0.486169321,-1.047254151,0.272578593,0.400327541,1.078537291,1.47414666,0.903954802,0.929022668,1.483021483,0.098586921,1.074053137,1.663392272,2.1735894,0.775060282,-0.06614654,0.268276325,0.746268657,1.307379431,1.095197978,0.987508992,-0.147058824,1.051207327,-0.526465566,3.133777259,2.041376567,1.207491375,-0.607111882,1.6738903,0.797760672,0.27632951,0.419367137,1.645496536,-1.72817809,2.690909091,0.807955252,0.942745459,1.452325826,1.229407426,-0.433794671,1.117318436,1.449541284,1.802309209,2.017965993,0.602813128,0.375180375,0.767938565,1.573366777,2.057613169,-0.053586466,1.856300502,0,-0.461727888,0.812834225,1.038925059,1.315192744,0.22617593,1.14004914,0.821636426,-0.250973605,0.981532148,1.256127451,1.366952871,0.94300943,4.092140921,0.040855236,0.698174006,3.037037037,-0.1846235,1.232394366,1.476117532,-0.155666252,0.387263339,-1.281269067,1.908597444
2013/4/9,0.061468925,0.737618546,0.535930838,-0.788584303,0.6129737,1.569299749,1.158012701,1.82811515,-0.285749027,0.243965074,1.27101271,-1.251462871,1.068602659,1.315789474,1.676698194,2.518891688,0.799671929,0.475252115,1.918174894,-0.848073661,1.860699019,-0.256144417,1.082402235,0.080042689,0.84519573,1.156549521,1.308377401,1.25,0.537371764,1.455112381,1.777453129,0.799047943,0.73594348,0.499035168,0.039525692,0.35335689,0.837094472,-0.2644753,1.261744966,-0.277640059,0.693992626,1.576182137,0.457026787,0.549601539,0.441165835,0.737720831,-0.520984081,1.357758621,0.144840072,0.94869993,2.679830748,1.22651357,2.595563945,-0.48729551,0.983069361,7.96460177,0.61737327,2.302335109,-0.535264484,0.275927688,0.965499485,0.281794981,0.406164138,-0.165803981,0.306614104,1.877649909,0.030707815,1.294099522,1.684782609,-0.029069767,1.569444444,0.496033598,0.077160494,0.03342246,-0.255699979,1.32183908,3.642384106,1.851851852,0.407773729,2.4866226,0,0.472143532,1.059069212,0.607956558,-0.399789584,0.413258717,0.943636827,1.463304818,0.031492757,2.433297759,1.901618733,1.892803598,0.694927033,1.016360932,0.932611312,-0.337980566,0.207253886,0.290084388,1.018387553,1.157601116,1.039817398,0.604081633,1.026545002,-0.72624381,0.661827498,1.381145464,1.836703195,0.809034215,2.75332882,0.013451708,0.364963504,0.790933774,1.031091371,0.648473386,0.750691426,0.080818966,0.949913644,0.867638915,0.415224913,0.790437633,-0.589410589,1.026912181,0.58411215,0.860046912,0.126440011,0.645994832,0.650650651,0.722767166,1.141718014,0.634345265,4.40821256,1.133096567,0.529369846,1.988217968,0.64190112,0.246224557,0.564876957,1.455810358,0.233134198,0.837463681,-0.544797271,2.140468227,2.197530864,1.319185546,0.833333333,0.837521046,1.561119293,0.875476362,0.171649263,1.14749082,1.040622892,0.292184076,-0.029086678,1.969719242,0.251319078,-0.067592159,0.14198937,0.426015337,1.639344262,1.239140699,0.715166461,0.455580866,0.10373444,0.874423124,0.290456432,1.104972376,0.05425936,0.746887967,2.644737256,0.732356858,0.273145486,0.797809002,0.695925469,2.822580645,0.628063725,1.715480274,0.972947318,0.268013607,1.060895396,1.562928434,1.181736795,0.290009451,-2.050335244,0.577249576,0.355717508,1.825447895,0.862329803,0.273196777,0.842810723,2.655558448,1.524639259,1.44,2.94751977,0.132117849,-0.043478261,0.562645808,1.340816963,1.028718388,1.689328389,0.841924399
2013/4/10,0.771118411,2.928870293,0.902723735,1.81680545,0.373803179,0.454427421,0.609305761,0.866694181,0.585330163,0.461124632,2.105263158,1.009270764,0.229701372,1.401230349,0.028188865,0.40950041,0.284784378,2.284263959,1.764578834,0.684261975,0.493705258,1.198410272,1.727115717,0.666488936,0.970445523,0.132651128,0.714009027,3.086419753,2.137998056,1.383019593,1.674641148,1.06257379,1.665692577,-0.440230274,-0.566311076,1.33190447,0.748108476,-0.06155886,1.111346766,0.437506215,0.839974155,1.235632184,0.113736889,0.163979229,0.673243088,0.693775294,-0.135777325,0.191367212,0.843678438,1.009397842,1.144688645,-0.386697602,0.597976081,0.750262329,0.594916171,5.327868852,0.891615934,2.098350152,0.918012029,0.605370529,1.22402142,1.468638991,2.201070791,0.839443387,0.698689956,1.307966706,0.322333078,0.288973384,0.712631391,-0.145391102,2.203155357,0.295779684,0.616808019,0.7183428,1.174962615,0.567214974,2.555910543,0.53030303,0.760390564,1.28992629,0.606534925,0.704887218,1.254612546,1.026694045,0.813351643,0.574466261,0.732693279,0.011093854,0.766082485,1.0627214,-0.169648365,2.188707008,0.966183575,1.006134969,0.476900149,1.398897838,0.809051645,1.1306863,1.37216466,0.193023576,0.251004016,0.405712431,-0.626090527,0.266020617,0.339342524,0.837395326,0.833585935,0.083598061,0.065890622,0.376597176,0.654545455,0.562192551,1.19327995,0.322147651,-2.470588235,-3.499327052,0.843211536,1.811859444,1.171605789,0.803366488,0.010250226,0.630914826,1.187249968,0.723514212,0.533183668,-0.128369705,0.837062821,-0.422860072,1.308009317,0.342188204,1.349334876,0.501672241,0.698734177,0.613718412,1.16705116,0.237432455,0.139035649,1.492063492,-0.072684983,1.508474576,1.723549488,1.211525868,0.459048079,1.132182281,2.451790634,0.678618975,0.232018561,0.204206657,1.070969584,1.098169717,1.485626085,-0.728332119,1.018329939,1.427129883,1.02353153,0.53069719,0.919726736,1.866515837,0.997067449,0.221756376,0.073579824,0.113378685,-0.103626943,0.325066217,0.724038064,1.202185792,1.735357918,1.043382757,2.083333333,0.29742234,1.017921147,-0.011813349,0.312116821,0.549019608,1.096057239,0.864036965,5.948296122,1.058908194,1.51165232,0.499460043,1.866926208,1.928726451,0.734126984,1.063470628,0.406328348,0.019956097,0.097495125,0.349585101,-0.17118115,0.0507228,0.522928399,1.577287066,0.907821229,1.121519989,-0.456720313,0.982532751,0.738461538,0.869749682,0.729335494,2.095757369
2013/4/11,1.218235744,-2.676151762,2.090081752,1.301115242,1.03865207,-0.129249063,0.422095797,-0.102291326,0.757713524,1.147520082,-2.458366376,0.78345287,0.382817193,1.145938659,1.075102156,-0.815660685,1.034482759,1.060230092,2.371118705,1.09223301,0.859739622,0.072503172,1.595925297,1.032838983,1.965923984,0.681302044,0.927441353,-1.0133579,1.189343482,0.871542251,1.435294118,0.650867824,0.632365622,0.034013605,1.735099338,0.649644961,0.852248755,-0.317460317,0.648851226,0.326700327,0.897052542,0.397388589,0.429184549,1.227830832,0.482780818,2.985645933,0.311741284,0.838285229,0.597585754,0.895933839,1.063829787,0.414078675,1.691815272,0.331545418,-0.134408602,-4.280155642,0.180548297,2.506275494,1.505646173,1.727845475,0.541629928,0.606123942,-0.698486612,1.028491275,1.604509974,1.936619718,-0.244798042,1.107067031,0.919865558,0.436808387,0.665511637,0.462962963,2.017879949,0.613700448,0.021114865,0,1.453790239,3.240391861,4.28779693,-0.333535476,0.388953715,1.835433193,0.962099125,2.141695703,1.173512154,0.775788576,0.777526963,1.064891847,0.333263903,3.463917526,0.8496833,0.467962563,0.0683527,3.425655977,1.008602788,1.045150502,1.155563601,1.196047842,0.968232044,0.110086693,0.333834084,0.840633587,0.34083867,2.354953333,0.169097442,1.815815568,0.646324966,0.217173405,1.097453907,0.643172987,2.74566474,0.428604705,1.474010861,0.642226385,2.211499799,1.589958159,0.75133301,2.121157649,1.589464124,1.0056926,0.904138054,0.243817485,0.025506951,0.102616727,0.34542917,-1.670951157,1.241061889,-0.682022906,-0.300672091,0.70896527,4.241780943,1.663893511,0.633547868,-1.704341586,2.280348759,1.274197501,0.833055648,1.407569596,1.251091068,-0.10018367,5.619862439,0.452927855,1.202501203,0.783655192,0.295778435,0.140332972,1.851851852,0.815162013,0.777055665,-1.101202945,2.148288973,1.687454145,1.123271889,-0.938032973,1.439539347,2.04947728,-0.07513148,1.30483065,0.275842044,0.069799907,0.538169148,1.970554926,-0.352697095,1.596303852,0.741425344,2.339812815,1.652452026,1.385869565,-1.920768307,0.626029654,1.504399659,0.413516068,-0.311145683,2.418096724,1.355217588,0.585161964,1.639271533,1.505595117,1.613236815,2.081934184,1.580908538,2.270495901,1.940122119,1.503257057,0.327191321,1.084064911,-1.221248221,0.672931492,0.403671576,0.861850444,1.120448179,0.18115942,-1.107266436,1.644050104,0.480664191,1.243243243,1.007941356,1.135646688,-0.120675784,1.051401869
2013/4/12,-0.489286509,-0.243647755,0.861222331,-0.036697248,-0.144105071,0.40119063,0.109649123,-0.778210117,-0.6738058,0.176478003,3.414634146,-0.555795482,0.465265522,0.416527824,0.581322404,-0.740131579,1.264806264,-0.133928571,1.410617363,0.288115246,-0.925474915,-0.682243555,1.771390374,0.707732634,-0.064267352,-1.328320802,-0.189189189,-0.093066543,-0.705218618,-0.450788881,-1.136627233,0.198971978,-1.27106541,0.204012241,-0.833224841,-0.79555689,-0.016733601,0.438254587,-0.38207711,0.15788435,-0.698560542,-0.395815663,-0.490196078,-0.552560647,0.014235889,0.511057424,0.870356565,0.284120804,-0.34454081,0.182149362,-1.321388578,-0.605670103,-3.147482014,1.384083045,-1.480484522,-1.219512195,-0.507469765,0.286971494,-0.695302843,-0.509920267,0.062640942,-0.020774904,-1.172332943,1.224781225,-0.426803244,-1.381692573,-0.030674847,-1.034948253,0.210341805,0.086981734,-0.816354068,-1.347926267,0.801201803,-0.197823937,2.153261558,0.112803158,0.614124872,-1.386861314,0.583833566,-0.821417706,-0.600542425,0.061096686,0.101068438,-0.755025926,-0.724937862,-0.177649945,2.040816327,0.087805949,-0.508615321,2.411319251,0.612745098,1.146542458,-0.341530055,-2.81888654,-0.558002937,0.372362433,1.088674799,-2.338129496,-0.247602632,0.041237113,0.282814839,1.121812595,0.020586722,0.527400868,0.105296476,-0.493030617,-1.986260454,-0.166694449,-1.498046027,1.690853415,3.902953586,0.234262653,2.295107034,1.409199681,0.354051928,4.420647996,0.781813808,0.932934343,-1.486365668,1.014465527,-0.697072296,-2.588603197,-1.504526329,-0.179395182,-0.566779095,-0.522875817,0.876765709,-5.804612594,-1.259535214,-1.265371592,0.456571009,-1.800327332,0.569601279,-1.606132506,-2.806557377,-0.750060489,-3.172504957,-0.740283775,0.560344828,-1.25355173,0.682973316,-0.901771337,-0.237642586,0.083310192,-2.091152815,0.312121791,-1.477272727,0.505356782,-0.343473994,-0.974281392,-1.284198772,-0.384800385,-1.310168043,1.348637016,-1.15150696,2.393751902,-0.751879699,-1.219512195,0.10134646,-1.127644734,-0.340715503,0.932918703,1.540703727,2.598387436,-0.205908136,-0.246218783,-0.69935326,-1.822567676,-2.631578947,0.065487885,0.139821029,0.729497588,-1.382231635,0.99009901,0.668548507,0.041761895,2.968136185,-0.501002205,1.017708121,0.092105263,-0.478922207,-0.986804327,-0.937107526,-0.065821952,-0.532097494,-0.613527206,1.5625,-0.527801312,0.502108696,-0.251319427,-1.292705448,-0.774993542,-0.349895031,-1.181001284,-0.848010437,0.026695141,1.179316601,-1.434809732,-0.443012485,-3.104872007
2013/4/15,-2.223219165,-0.52337753,0.029960303,-3.230543319,-0.754868172,1.095643207,-0.559815018,-1.135190918,-2.307692308,0.163583742,0.157232704,-1.491663677,-1.660811242,-2.37265638,0.083298683,-0.828500414,-0.356859635,-0.335270451,2.102030886,-1.604022025,-1.548672566,0.41337386,0,-1.327433628,-0.407288317,0.215900432,-2.220417005,-0.512342804,-0.331439394,-2.125786164,-2.839042703,-1.257653483,-2.430203964,-2.420540663,-1.234081659,-0.998638221,-2.510460251,-1.438699113,-1.534170153,0.620689655,-1.492219143,0.113539597,-0.290514084,-2.181867462,-3.387659241,0.027734122,-1.247720511,-1.269674711,-1.800190749,-1.397727273,1.747616886,-1.737326591,-0.603528319,-1.706484642,-0.163934426,-1.234567901,-0.24787873,-3.174360931,-1.944919869,-1.463050974,-0.550895205,-1.049350649,-2.832858837,0.37070011,-2.228889841,-3.181552831,-1.672292114,-1.045771446,-1.521777156,-0.8400927,-1.006734236,-3.176456849,-0.372578241,-0.396432111,-1.797892126,-2.225352113,-2.746693795,-2.07253886,-1.708633094,-1.319018405,-0.311830053,-1.633338422,-1.54334343,-1.810265811,-1.669100772,-0.957627119,-1.158536585,-2.664765873,-1.053729786,-1.498345982,-0.776492083,-2.178533475,-2.193283071,-2.538071066,-1.712935617,-3.338829349,-0.643219639,-3.827940016,0.329127811,-0.673261885,-2.438619774,-2.528134411,-1.19378409,-4.063449673,-0.168423627,-1.480303401,-2.879780588,-1.035231257,-1.851443685,-3.007986384,-2.402707276,-1.828068958,0.20776969,-1.442055585,-2.273618189,-4.549040231,-0.346103354,-3.644925009,-0.533182076,-0.576529663,-0.481347774,-1.569466738,-1.747572816,-1.641848524,-1.335851168,-1.97109067,-1.030098181,-7.812929849,-3.719008264,-2.806859206,0.399455041,-4.85,-0.447138315,-1.576701911,-1.430306301,-3.299203641,-0.341296928,-3.138595401,-2.700385769,-3.182125931,-0.765104906,-2.177445564,-3.406383992,-0.554938957,-1.396495071,-1.568453137,-2.537485582,-1.307320998,-0.963635085,2.979100464,-1.640271493,-2.607436021,-0.923520924,-0.750283126,-2.239601849,-1.679346211,-1.439393939,-0.707449022,-2.227364767,-6.57260435,-1.123321123,-2.596830986,-1.619848267,-1.116739581,0.040858018,-3.667136812,-1.980112621,-0.327600328,-8.768070396,-1.014397906,-1.535883831,-1.056418643,-2.837119928,-2.639517345,-3.047520661,0.788991092,-2.861381942,-3.213232058,-0.805964135,-2.287366899,-5.730732881,-2.553609137,-2.906182953,-1.333772435,-1.138912856,-1.6930639,-1.508588499,-1.980781468,-1.859256297,-3.199798438,-1.52345316,-1.223639677,-2.141853933,-1.130163679,-3.421052632,-1.040832666,-2.570233114,-2.292827004,-0.991100324,-5.454235555
2013/4/16,0.243093849,0.648895125,0.359415949,0.151745068,0.88802091,-0.509881423,0.440582548,-0.647181628,0.7502015,-0.288944724,1.020408163,0.067087079,0.308541734,0.407885792,-0.249411093,0.918964077,0.139275766,0.403677955,-1.44725566,0.340632603,2.996254682,0.538806151,0.098522167,0.026378264,0.086095566,0.228107971,-0.581556356,0.280898876,-0.475059382,1.992031873,-0.676165177,0,0.388435878,-0.214443028,0.498471355,-0.076417545,-0.248927039,0.402377774,0.106232295,-0.107705865,-0.389526077,-0.311879785,-0.304028376,0.415627598,0.825046041,0.471349353,0.058314705,-0.382612392,0.157824451,-0.391840498,2.230649119,-1.134714342,-1.027557216,0.208333333,0.574712644,0,-0.028672465,-0.906296792,0.079339892,-0.037734065,-0.402870452,0.39899202,0.25405344,-0.50574843,0.394563788,-0.090443172,0.280855048,-1.730739776,0.230905861,-1.548349401,-2.329416615,0.156796526,-0.373971578,0.165837479,-0.315656566,0.691443388,1.464435146,0.831443689,0.141395658,0.37301834,-0.117302053,0.124146493,0.629944331,-0.180863477,0.477402928,0.171130316,-0.259099321,0.281658405,-0.432307043,0.87909917,0.107411386,-0.162954916,0.350385424,-0.942460317,-2.884615385,0.852878465,0.819623448,1.244699767,-0.451066156,0.221330751,0.204046931,0.170745589,0.145818144,0.887907658,-0.380067568,0.757481684,-0.078443677,-0.86046904,-0.067370312,0.40157932,1.144244105,0.365350619,0.626491647,0.239425379,-0.200561572,-2.066115702,0.107784431,0.742081448,0.148266423,0.437710438,-0.141072148,-1.123391919,-0.421607378,0.520744965,0.290635855,-2.379356568,0.016262807,0.059683677,-0.093300989,0.492153403,-0.0179121,1.593974426,0.249525901,-0.584244252,-0.629705681,0.831932773,-0.399543379,0.03208213,-0.190895742,-0.554195804,0.294094269,0.099667774,1.40567201,-0.530133929,0.944182172,-0.106444746,-0.177514793,-0.346443856,-0.511363636,0.189894075,-0.019168104,0.446207238,-0.466064666,-0.356582513,0.699300699,-0.387588699,-0.384319754,0,0.177514793,1.384344324,-0.444554211,0.474469047,-0.562734473,-0.244498778,0.183785991,0.036603221,0.565681961,0.246507806,0.447812608,-0.760330579,0.311968236,0.052416841,0.529315961,0.658404338,0.547986909,0.267875541,-0.589133755,-0.593193881,0.710948609,0.551594242,0.318993802,0.287507172,0.241060667,-0.751001335,-0.296735905,-1.104377104,0.121322414,0.180357229,0.162965981,1.717855284,-1.872710001,0.158144439,-0.681736634,0.433582972,1.316984559,0.283171521,0.613496933,0.101051104,0.551583248,0.414638543
2013/4/17,-5.340421495,-0.33106813,-1.421323584,-0.037878788,-0.742420072,0.102396383,1.486535884,-2.542550956,-0.344615385,-0.65515938,-1.243201243,0.501858024,0.307592683,1.591062965,-0.124947938,-5.215231788,-1.668984701,-0.580746035,-2.322226737,-1.721629486,1.890909091,-0.246883844,0.147637795,-0.975738397,-0.193548387,-0.404602352,1.559888579,0.700280112,-1.718377088,1.5625,0.705081449,0.56980057,-4.655009452,-1.237149329,1.077971034,-2.095442031,-1.79846829,-0.200860832,0.344888574,-0.019603999,0.065174886,-3.27076223,-0.190597205,-1.462472406,-0.511434208,-0.975071291,0.262263235,-0.224047797,-0.496969697,-0.752053685,-1.658302422,-0.22687842,-1.544596508,-0.121275121,-1.360544218,0,0.143403442,-0.978209003,-0.832408435,-0.728570739,0.505751485,-0.962141811,-1.826595226,-0.765862125,-1.091703057,-1.569100785,-1.306986152,0.046758105,0.99237994,1.068249258,-2.877444773,-1.758188825,-0.725725726,-1.490066225,-0.612201815,0.283261803,-3.608247423,-2.548725637,-0.431893688,-0.371632084,0.880798591,-0.836949783,-0.04367448,0.57864282,-1.18255728,0.162296062,0,-0.539265251,-0.953086943,-0.656026633,-1.103617413,-0.961189699,-1.396648045,3.204807211,-0.309405941,-1.479915433,0.430044183,-1.702242637,-0.116710147,0.11042098,-0.492109282,-1.558441558,0.114404576,0.416260317,1.144764731,-1.047572098,1.224682054,0.442477876,-0.471910112,-1.263780586,-1.368186493,0.375763269,-1.719537504,-0.079617834,-0.884244373,3.094233474,-1.339873191,2.641034854,-3.792278784,0.374343502,1.243188698,0.824262415,-1.561259592,-0.830952999,-1.696352841,-1.407483694,-1.447154472,-4.175365344,-0.616361599,0.914803179,0.307274701,-2.206896552,-0.10951812,-0.578199052,-2.658768425,-0.966747229,1.020057307,-3.457344452,-3.236722083,-0.884271223,-0.729117134,-1.72585463,-0.705252918,0.448807854,-0.632737276,-0.306758371,-0.177830468,0.020449898,-0.214163335,-0.069594575,-0.076687117,-2.640671273,-0.760901375,1.188090467,-1.165277778,0.637200364,-2.854938272,-3.059513831,0.667454223,-2.12611718,-0.04961548,-1.416685406,-1.844477049,-2.124183007,0.733795353,-2.085620198,-0.625,-3.333333333,-5.624142661,0.185542971,-0.353406842,0.05899705,-0.526528959,-1.5136591,-0.272500189,-0.822030415,-1.251097454,-1.769262982,0.282371924,-1.050307733,-2.31670755,-1.943783363,-2.039078156,-0.420380024,-1.223739496,-2.066798311,-0.295365041,0.112961585,-0.905023388,-1.727226203,0.47019776,-1.052631579,-1.192196532,-1.007326007,-1.367099955,0.215140514,-1.951219512,-1.056945643,-0.629825274,-0.511669659
2013/4/18,-2.101883501,-0.34965035,-2.894985809,-4.698749526,-2.164240827,-1.920240686,-0.312162324,-0.711513583,-0.413733482,0.266328472,-1.337529504,-0.701379889,-6.342801808,-0.233255581,0.486516542,-1.92139738,2.586381087,-0.381936643,-3.844665849,-1.431038737,0.142755175,-1.581552578,-0.147420147,0.34620506,0.178840767,1.701155262,0.411409764,1.529902643,-0.679941719,-1.153846154,1.134717528,-0.516913848,-3.206319703,0.893907316,-1.230044491,-1.187314482,0.420609884,-0.967989266,-0.995857936,-1.862745098,-1.452453322,-0.396942076,0.076384468,-0.70008401,2.680472938,-1.254064097,-1.676031777,-3.015397776,-0.170544524,-0.034973187,-0.44375416,-0.775815944,-2.649225652,-0.260190807,-0.165517241,-4.6375,-1.599045346,-2.184563489,-0.567591334,-0.619460593,-0.540937566,-0.168954593,-0.70702059,-2.589922033,-0.353200883,-0.674432863,0.331073624,-1.308615049,-0.71942446,-0.455079272,-0.456356393,0.50257416,0.100831863,-0.067226891,-0.987680544,-1.709035921,-2.56684492,-0.846153846,-1.496496496,0.652782095,-0.911913077,0.625195374,-2.883775124,-0.511390051,-3.184100865,0.631076241,-0.395843642,-0.440528634,-0.502512563,-0.394244037,-2.309361438,-2.014283098,-0.637393768,-0.242600679,-0.713842334,1.072961373,-1.096902863,-1.264431006,-0.006873325,0.565283331,-0.477489768,-0.775065963,0.270101808,-1.363937843,-0.125942737,0.685016814,0.449821622,0.321924771,0.293519982,-0.490196078,-0.072642844,-0.959288723,0.286576169,-1.726427623,-0.95296026,-0.02728513,-0.048502486,-1.645370208,-0.189393939,-0.046386492,1.004664514,-0.217739795,-5.134408602,-0.589159466,-0.445786598,-1.532033426,-1.83138096,0.217864924,-0.234918248,0.219760095,-0.865960187,-2.309590973,0.308980365,-0.200209744,-0.509482027,1.969199697,0.580894032,-1.26901867,-0.607723886,0.150762682,-0.95002395,-1.452212091,-0.685770267,0.418877409,-2.187153931,0.829176653,-0.534441805,0.511142916,-1.688367435,-2.689406849,1.170376055,-1.673003802,-0.560306694,1.131701797,-1.505037872,-0.542713568,-0.63542494,-1.542008935,-0.017602535,-0.694000548,0.18615041,-0.068430657,0.085415332,-1.073694252,0.202347228,-0.467115097,-5.247079964,0.310910119,-1.01744186,0.646036501,-0.24116896,-1.261792453,-0.430432759,-1.158747646,2.967741935,0.041442188,-3.334074239,-2.557817329,-1.468222043,-0.918125887,-1.54389881,-0.065177111,0.250600931,-0.219520432,-1.012034526,-0.621381446,-1.450816559,-0.01737847,-1.036428938,-0.924358807,0.000137646,0,-0.621572212,-0.832562442,0.022722109,0.013417416,-0.186567164,-0.043601482,-0.715600082,-0.712803393
2013/4/19,-1.191147575,3.894736842,0.350740452,0.715705765,0.656779455,1.031065095,0.529928941,1.411509229,0.297637502,1.441942828,-1.355661882,-0.468330134,2.481475099,0.617902472,0.594826394,1.7809439,0.955288556,-0.067658999,0.760135501,-0.725907384,0.261344737,-2.477919529,0.409776903,0.212314225,0.359193857,2.196979154,0.819448238,1.415525114,-2.298288509,-0.075310656,0.740033421,0.949081906,-1.328212514,0.75775239,-1.689189189,-0.347826087,1.073298429,-0.12581051,0.356061955,-0.649350649,0.041858518,-0.929889299,0.457957003,2.453468697,1.888141897,0.818438382,0.936052813,0.882028666,0.561317877,0.956268222,0.089146423,1.024534915,-0.738552437,0.069565217,0.276319425,4.426093415,-7.950521465,1.042778553,-0.54671169,0.517836594,1.315250379,0.867357732,-0.04996877,-4.676939514,-4.253433762,0.49382716,2.655562539,0.236779795,0.441852245,0.457159711,0.312909329,0.585437248,1.410224125,1.076353851,0.075083128,0.783744557,-0.109769484,-1.861908456,0.350591941,-1.760345893,0.254552575,-0.015532774,1.064787043,-0.220794393,1.202957731,0.491694915,0.943864878,-0.056727933,0.468514937,0.257272907,1.598445185,1.850121473,-1.069137562,-0.705252918,0.593935605,-0.16985138,3.54071526,-1.14142539,2.158372285,0.411296956,0.25702536,-0.249293668,0.207210941,-0.216617595,0.503566932,0.915388422,0.262507721,0.844451951,-0.270148582,0.383141762,0.539130435,0.496102055,0.676793503,0.297297297,0.470829069,0.845796943,-0.097052044,-0.338138459,-0.830170778,0.259884908,0.947306098,0.327868852,1.516010201,0.671671276,0.996677741,0.848656294,0.235294118,0.310559006,0.02825657,-0.237551393,-0.429118941,0.505323949,3.219395866,3.935804356,-3.684210526,0.099034414,0.415106258,-0.639300135,1.376313096,1.018329939,0.636737326,0.376970528,0.397040691,0.945494994,0,0.713138452,-0.626865672,0.661106591,0.232862757,4.552929711,-0.948226816,-0.103119361,-0.622775801,0.503566932,1.64074761,-0.212206952,-1.199040767,-1.288056206,0.542840376,1.111111111,0.619348445,0.707601004,1.034777043,0.410320204,0.767366721,0,-1.574056514,-1.437024514,0.660792952,0.825900231,0.028441411,0.609100681,-0.537445963,0.790513834,2.904319623,1.15990058,1.471602667,-0.295307886,-0.898142478,-0.199110213,0.151143019,0.520514676,0.367309458,-0.626163479,1.110116383,0.782895243,-0.200400802,0.642359449,0.663625052,0.762155059,0.027391566,1.25,1.61883738,-1.719083156,-0.272603362,1.676951972,0.342679128,0.458015267,0.885502471,2.071973828
